Date,Low,Open,Volume,High,Close,Adjusted Close
04-10-1989,2.4375,2.46875,20636000,2.546875,2.5,1.7905151844024658
05-10-1989,2.5,2.515625,6453600,2.625,2.578125,1.8464672565460205
06-10-1989,2.546875,2.59375,2755200,2.625,2.546875,1.8240858316421509
09-10-1989,2.5,2.546875,1084000,2.546875,2.546875,1.8240858316421509
10-10-1989,2.5,2.5625,1493600,2.5625,2.53125,1.8128957748413086
11-10-1989,2.46875,2.5,1260000,2.515625,2.515625,1.8017041683197021
12-10-1989,2.515625,2.515625,602400,2.546875,2.53125,1.8128957748413086
13-10-1989,2.46875,2.53125,3970400,2.53125,2.484375,1.7793229818344116
16-10-1989,2.375,2.375,3924800,2.46875,2.46875,1.7681328058242798
17-10-1989,2.4375,2.4375,1843200,2.5,2.5,1.7905151844024658
18-10-1989,2.484375,2.5,1128000,2.5625,2.546875,1.8240858316421509
19-10-1989,2.53125,2.53125,1040000,2.546875,2.546875,1.8240858316421509
20-10-1989,2.515625,2.53125,237600,2.53125,2.53125,1.8128957748413086
23-10-1989,2.546875,2.546875,87200,2.5625,2.546875,1.8240858316421509
24-10-1989,2.53125,2.546875,689600,2.5625,2.5625,1.8352770805358887
25-10-1989,2.515625,2.546875,608000,2.578125,2.546875,1.8240858316421509
26-10-1989,2.546875,2.546875,228800,2.5625,2.546875,1.8240858316421509
27-10-1989,2.5,2.546875,456000,2.546875,2.515625,1.8017041683197021
30-10-1989,2.5,2.515625,250400,2.515625,2.5,1.7905151844024658
31-10-1989,2.5,2.5,424800,2.515625,2.5,1.7905151844024658
01-11-1989,2.515625,2.515625,715200,2.5625,2.5625,1.8352770805358887
02-11-1989,2.59375,2.59375,130400,2.640625,2.640625,1.8912297487258911
03-11-1989,2.625,2.625,1118400,2.75,2.734375,1.958375334739685
06-11-1989,2.578125,2.71875,264800,2.71875,2.578125,1.8464672565460205
07-11-1989,2.5,2.546875,727200,2.6875,2.6875,1.9248020648956299
08-11-1989,2.671875,2.6875,236800,2.71875,2.71875,1.9471838474273682
09-11-1989,2.6875,2.71875,60800,2.71875,2.6875,1.9248020648956299
10-11-1989,2.546875,2.6875,210400,2.6875,2.5625,1.8352770805358887
13-11-1989,2.515625,2.5625,92800,2.5625,2.546875,1.8240858316421509
14-11-1989,2.484375,2.578125,428000,2.578125,2.53125,1.8128957748413086
15-11-1989,2.53125,2.546875,176000,2.578125,2.5625,1.8352770805358887
16-11-1989,2.546875,2.546875,301600,2.59375,2.59375,1.8576579093933105
17-11-1989,2.59375,2.59375,249600,2.640625,2.640625,1.8912297487258911
20-11-1989,2.609375,2.65625,43200,2.65625,2.609375,1.8688489198684692
21-11-1989,2.59375,2.59375,108800,2.671875,2.671875,1.913611650466919
22-11-1989,2.6875,2.6875,255200,2.75,2.75,1.9695663452148438
24-11-1989,2.78125,2.78125,572000,2.953125,2.921875,2.092663049697876
27-11-1989,2.859375,2.90625,253600,2.9375,2.875,2.0590920448303223
28-11-1989,2.828125,2.875,560000,2.875,2.828125,2.0255191326141357
29-11-1989,2.78125,2.8125,60800,2.8125,2.796875,2.0031371116638184
30-11-1989,2.8125,2.8125,712800,2.90625,2.890625,2.0702834129333496
01-12-1989,2.890625,2.890625,356800,2.953125,2.90625,2.0814733505249023
04-12-1989,2.875,2.9375,172000,2.984375,2.984375,2.1374266147613525
05-12-1989,2.90625,2.953125,93600,2.984375,2.90625,2.0814733505249023
06-12-1989,2.90625,2.90625,668800,3.0,2.984375,2.1374266147613525
07-12-1989,2.921875,2.984375,215200,2.984375,2.953125,2.115043878555298
08-12-1989,2.921875,2.921875,122400,2.953125,2.953125,2.115043878555298
11-12-1989,2.9375,2.96875,306400,3.03125,3.0,2.148616313934326
12-12-1989,2.984375,3.015625,1119200,3.03125,3.015625,2.159806728363037
13-12-1989,2.984375,3.0,400000,3.15625,3.15625,2.2605230808258057
14-12-1989,3.109375,3.125,391200,3.140625,3.125,2.238142490386963
15-12-1989,3.09375,3.140625,155200,3.140625,3.109375,2.226952075958252
18-12-1989,3.03125,3.078125,224000,3.125,3.03125,2.170999050140381
19-12-1989,3.03125,3.03125,215200,3.0625,3.0625,2.193380355834961
20-12-1989,3.046875,3.0625,166400,3.109375,3.078125,2.20457124710083
21-12-1989,3.0625,3.109375,174400,3.125,3.109375,2.226952075958252
22-12-1989,3.109375,3.125,173600,3.125,3.125,2.238142490386963
26-12-1989,3.078125,3.109375,97600,3.109375,3.078125,2.20457124710083
27-12-1989,3.03125,3.0625,144000,3.0625,3.03125,2.170999050140381
28-12-1989,3.03125,3.046875,11200,3.046875,3.03125,2.170999050140381
29-12-1989,3.015625,3.03125,219200,3.15625,3.15625,2.2605230808258057
02-01-1990,3.03125,3.125,194400,3.125,3.046875,2.182189464569092
03-01-1990,3.03125,3.0625,361600,3.0625,3.03125,2.170999050140381
04-01-1990,2.953125,3.03125,166400,3.0625,2.953125,2.115043878555298
05-01-1990,2.859375,2.9375,100800,2.9375,2.90625,2.0814733505249023
08-01-1990,2.84375,2.875,880800,2.890625,2.859375,2.047898769378662
09-01-1990,2.8125,2.828125,282400,2.84375,2.8125,2.0143282413482666
10-01-1990,2.6875,2.765625,784000,2.765625,2.703125,1.9403040409088135
11-01-1990,2.703125,2.71875,347200,2.765625,2.75,1.9739528894424438
12-01-1990,2.6875,2.71875,159200,2.734375,2.71875,1.9515211582183838
15-01-1990,2.71875,2.734375,25600,2.734375,2.71875,1.9515211582183838
16-01-1990,2.625,2.6875,172800,2.703125,2.703125,1.9403040409088135
17-01-1990,2.71875,2.71875,216000,2.8125,2.71875,1.9515211582183838
18-01-1990,2.6875,2.6875,157600,2.71875,2.703125,1.9403040409088135
19-01-1990,2.734375,2.734375,8800,2.75,2.75,1.9739528894424438
22-01-1990,2.71875,2.734375,56800,2.75,2.734375,1.9627362489700317
23-01-1990,2.734375,2.765625,101600,2.765625,2.75,1.9739528894424438
24-01-1990,2.6875,2.734375,26400,2.734375,2.6875,1.9290891885757446
25-01-1990,2.671875,2.6875,249600,2.71875,2.71875,1.9515211582183838
26-01-1990,2.671875,2.703125,45600,2.71875,2.671875,1.9178736209869385
29-01-1990,2.625,2.6875,444000,2.6875,2.640625,1.8954418897628784
30-01-1990,2.578125,2.625,548000,2.65625,2.65625,1.9066580533981323
31-01-1990,2.6875,2.6875,757600,2.859375,2.859375,2.052461862564087
01-02-1990,2.84375,2.875,149600,2.875,2.859375,2.052461862564087
02-02-1990,2.875,2.875,720000,2.90625,2.875,2.063678026199341
05-02-1990,2.875,2.90625,163200,2.90625,2.875,2.063678026199341
06-02-1990,2.84375,2.875,99200,2.90625,2.890625,2.074892044067383
07-02-1990,2.90625,2.90625,32800,2.9375,2.9375,2.108539342880249
08-02-1990,2.96875,2.96875,346400,3.125,3.046875,2.1870486736297607
09-02-1990,2.96875,3.078125,179200,3.125,3.0,2.153402805328369
12-02-1990,2.90625,3.0,28000,3.0,2.90625,2.086108446121216
13-02-1990,2.9375,2.9375,26400,2.953125,2.953125,2.1197562217712402
14-02-1990,2.9375,2.953125,32800,2.96875,2.9375,2.108539342880249
15-02-1990,2.953125,2.953125,152000,2.96875,2.953125,2.1197562217712402
16-02-1990,2.96875,2.96875,32000,2.96875,2.96875,2.130970001220703
20-02-1990,2.953125,2.984375,23200,2.984375,2.953125,2.1197562217712402
21-02-1990,2.90625,2.953125,553600,2.953125,2.90625,2.086108446121216
22-02-1990,2.84375,2.90625,148000,2.90625,2.84375,2.0412447452545166
23-02-1990,2.6875,2.78125,575200,2.78125,2.71875,1.9515211582183838
26-02-1990,2.734375,2.734375,477600,2.75,2.75,1.9739528894424438
27-02-1990,2.765625,2.765625,357600,2.84375,2.84375,2.0412447452545166
28-02-1990,2.796875,2.8125,145600,2.828125,2.796875,2.007598400115967
01-03-1990,2.75,2.796875,225600,2.796875,2.75,1.9739528894424438
02-03-1990,2.6875,2.75,931200,2.78125,2.703125,1.9403040409088135
05-03-1990,2.65625,2.671875,146400,2.703125,2.671875,1.9178736209869385
06-03-1990,2.625,2.671875,258400,2.734375,2.734375,1.9627362489700317
07-03-1990,2.703125,2.734375,174400,2.75,2.75,1.9739528894424438
08-03-1990,2.734375,2.75,146400,2.796875,2.78125,1.996383786201477
09-03-1990,2.734375,2.75,194400,2.78125,2.734375,1.9627362489700317
12-03-1990,2.625,2.703125,1072800,2.71875,2.6875,1.9290891885757446
13-03-1990,2.671875,2.671875,662400,2.6875,2.6875,1.9290891885757446
14-03-1990,2.671875,2.671875,298400,2.765625,2.765625,1.985168218612671
15-03-1990,2.71875,2.78125,192000,2.796875,2.71875,1.9515211582183838
16-03-1990,2.734375,2.75,271200,2.78125,2.78125,1.996383786201477
19-03-1990,2.75,2.75,476000,2.765625,2.765625,1.985168218612671
20-03-1990,2.75,2.75,898400,2.90625,2.796875,2.007598400115967
21-03-1990,2.796875,2.796875,102400,2.8125,2.796875,2.007598400115967
22-03-1990,2.75,2.75,177600,2.765625,2.765625,1.985168218612671
23-03-1990,2.796875,2.796875,320000,2.796875,2.796875,2.007598400115967
26-03-1990,2.75,2.78125,37600,2.78125,2.75,1.9739528894424438
27-03-1990,2.734375,2.734375,24000,2.75,2.75,1.9739528894424438
28-03-1990,2.84375,2.84375,706400,2.9375,2.921875,2.0973241329193115
29-03-1990,2.890625,2.921875,361600,2.9375,2.90625,2.086108446121216
30-03-1990,2.921875,2.921875,161600,2.921875,2.921875,2.0973241329193115
02-04-1990,2.84375,2.921875,184800,2.921875,2.875,2.063678026199341
03-04-1990,2.875,2.875,358400,3.03125,2.984375,2.1421866416931152
04-04-1990,2.90625,2.984375,364800,2.984375,2.90625,2.086108446121216
05-04-1990,2.90625,2.9375,373600,2.953125,2.90625,2.086108446121216
06-04-1990,2.78125,2.921875,810400,2.921875,2.78125,1.996383786201477
09-04-1990,2.734375,2.734375,336800,2.765625,2.734375,1.9671567678451538
10-04-1990,2.71875,2.75,426400,2.8125,2.765625,1.9896390438079834
11-04-1990,2.71875,2.78125,234400,2.8125,2.734375,1.9671567678451538
12-04-1990,2.59375,2.71875,456000,2.734375,2.625,1.8884696960449219
16-04-1990,2.640625,2.640625,273600,2.734375,2.703125,1.9446742534637451
17-04-1990,2.703125,2.71875,16800,2.71875,2.71875,1.9559165239334106
18-04-1990,2.6875,2.6875,333600,2.75,2.71875,1.9559165239334106
19-04-1990,2.671875,2.71875,207200,2.71875,2.6875,1.9334341287612915
20-04-1990,2.65625,2.671875,168800,2.6875,2.671875,1.922193169593811
23-04-1990,2.625,2.65625,173600,2.65625,2.625,1.8884696960449219
24-04-1990,2.625,2.625,458400,2.671875,2.625,1.8884696960449219
25-04-1990,2.640625,2.65625,104000,2.671875,2.65625,1.9109523296356201
26-04-1990,2.625,2.625,461600,2.6875,2.6875,1.9334341287612915
27-04-1990,2.6875,2.6875,133600,2.703125,2.703125,1.9446742534637451
30-04-1990,2.6875,2.703125,68800,2.71875,2.71875,1.9559165239334106
01-05-1990,2.6875,2.71875,732800,2.828125,2.8125,2.023361921310425
02-05-1990,2.765625,2.78125,575200,2.828125,2.8125,2.023361921310425
03-05-1990,2.828125,2.84375,105600,2.859375,2.828125,2.034602642059326
04-05-1990,2.78125,2.84375,279200,2.84375,2.78125,2.000880241394043
07-05-1990,2.78125,2.78125,32800,2.84375,2.84375,2.045842170715332
08-05-1990,2.828125,2.84375,48800,2.84375,2.828125,2.034602642059326
09-05-1990,2.796875,2.84375,1232800,2.859375,2.796875,2.012119770050049
10-05-1990,2.796875,2.8125,428000,2.84375,2.796875,2.012119770050049
11-05-1990,2.828125,2.828125,172000,2.875,2.875,2.068325996398926
14-05-1990,2.75,2.890625,2418400,2.890625,2.75,1.9783985614776611
15-05-1990,2.75,2.78125,5804800,2.828125,2.8125,2.023361921310425
16-05-1990,2.8125,2.8125,367200,2.96875,2.90625,2.0908071994781494
17-05-1990,2.921875,2.921875,196000,2.953125,2.953125,2.124530553817749
18-05-1990,2.96875,2.96875,181600,3.0,3.0,2.1582529544830322
21-05-1990,2.921875,2.96875,74400,2.96875,2.953125,2.124530553817749
22-05-1990,2.96875,2.984375,40800,2.984375,2.96875,2.1357696056365967
23-05-1990,2.90625,2.96875,30400,2.96875,2.90625,2.0908071994781494
24-05-1990,2.75,2.921875,483200,2.921875,2.8125,2.023361921310425
25-05-1990,2.75,2.8125,817600,2.875,2.875,2.068325996398926
29-05-1990,2.890625,2.890625,60800,2.90625,2.90625,2.0908071994781494
30-05-1990,2.921875,2.9375,129600,2.984375,2.96875,2.1357696056365967
31-05-1990,2.90625,2.9375,143200,2.984375,2.96875,2.1357696056365967
01-06-1990,2.953125,2.96875,47200,2.984375,2.96875,2.1357696056365967
04-06-1990,2.90625,2.9375,68000,2.984375,2.984375,2.1470112800598145
05-06-1990,2.796875,2.984375,1125600,3.0,2.890625,2.0795652866363525
06-06-1990,2.875,2.890625,44000,2.90625,2.875,2.068325996398926
07-06-1990,2.859375,2.890625,212800,2.890625,2.859375,2.057084321975708
08-06-1990,2.8125,2.875,405600,2.875,2.84375,2.045842170715332
11-06-1990,2.84375,2.859375,48800,2.890625,2.875,2.068325996398926
12-06-1990,2.859375,2.90625,196000,3.0,2.984375,2.1470112800598145
13-06-1990,2.96875,2.96875,208000,3.09375,2.96875,2.1357696056365967
14-06-1990,2.9375,2.953125,20800,2.984375,2.984375,2.1470112800598145
15-06-1990,2.921875,2.984375,158400,2.984375,2.96875,2.1357696056365967
18-06-1990,2.96875,2.96875,1600,2.96875,2.96875,2.1357696056365967
19-06-1990,2.875,2.9375,174400,2.9375,2.921875,2.102047920227051
20-06-1990,2.90625,2.953125,127200,2.953125,2.9375,2.113288402557373
21-06-1990,2.921875,2.921875,6400,2.9375,2.9375,2.113288402557373
22-06-1990,2.921875,2.9375,356800,2.953125,2.953125,2.124530553817749
25-06-1990,2.90625,2.921875,24800,2.9375,2.921875,2.102047920227051
26-06-1990,2.859375,2.90625,207200,2.921875,2.921875,2.102047920227051
27-06-1990,2.921875,2.921875,13600,2.9375,2.921875,2.102047920227051
28-06-1990,2.9375,2.9375,157600,2.96875,2.96875,2.1357696056365967
29-06-1990,2.953125,2.984375,327200,2.984375,2.96875,2.1357696056365967
02-07-1990,2.875,2.953125,322400,2.953125,2.90625,2.0908071994781494
03-07-1990,2.875,2.9375,308800,2.9375,2.875,2.068325996398926
05-07-1990,2.8125,2.84375,596800,2.84375,2.828125,2.034602642059326
06-07-1990,2.78125,2.78125,82400,2.796875,2.796875,2.012119770050049
09-07-1990,2.75,2.796875,724800,2.8125,2.78125,2.000880241394043
10-07-1990,2.765625,2.78125,1073600,2.78125,2.78125,2.0053863525390625
11-07-1990,2.78125,2.78125,776000,2.8125,2.796875,2.0166521072387695
12-07-1990,2.796875,2.796875,1208800,2.90625,2.875,2.0729849338531494
13-07-1990,2.90625,2.90625,568000,3.0,2.96875,2.140580654144287
16-07-1990,2.96875,2.984375,680800,3.0,2.96875,2.140580654144287
17-07-1990,2.921875,2.96875,102400,2.96875,2.921875,2.1067821979522705
18-07-1990,2.84375,2.921875,348000,2.921875,2.84375,2.0504493713378906
19-07-1990,2.796875,2.8125,465600,2.875,2.875,2.0729849338531494
20-07-1990,2.890625,2.890625,51200,2.90625,2.890625,2.084249496459961
23-07-1990,2.859375,2.875,349600,2.9375,2.9375,2.118049144744873
24-07-1990,2.90625,2.90625,353600,3.015625,2.984375,2.1518476009368896
25-07-1990,3.0,3.015625,52000,3.03125,3.03125,2.185645818710327
26-07-1990,3.03125,3.0625,80000,3.0625,3.0625,2.2081785202026367
27-07-1990,2.984375,3.03125,75200,3.0625,2.984375,2.1518476009368896
30-07-1990,2.984375,3.0,160800,3.0,3.0,2.163113594055176
31-07-1990,2.953125,2.953125,175200,3.015625,3.0,2.163113594055176
01-08-1990,3.0,3.03125,134400,3.0625,3.015625,2.174380302429199
02-08-1990,3.03125,3.125,1056800,3.171875,3.171875,2.287041664123535
03-08-1990,3.109375,3.15625,1272000,3.265625,3.203125,2.3095755577087402
06-08-1990,3.125,3.25,247200,3.265625,3.125,2.253242015838623
07-08-1990,3.125,3.125,148800,3.140625,3.140625,2.2645089626312256
08-08-1990,3.09375,3.125,170400,3.140625,3.09375,2.230710506439209
09-08-1990,3.0625,3.09375,296000,3.09375,3.09375,2.230710506439209
10-08-1990,3.09375,3.09375,299200,3.109375,3.09375,2.230710506439209
13-08-1990,3.078125,3.109375,56800,3.125,3.078125,2.2194440364837646
14-08-1990,3.0625,3.109375,49600,3.109375,3.0625,2.2081785202026367
15-08-1990,3.0625,3.0625,196000,3.15625,3.125,2.253242015838623
16-08-1990,3.078125,3.109375,140000,3.125,3.109375,2.2419776916503906
17-08-1990,3.125,3.140625,201600,3.1875,3.140625,2.2645089626312256
20-08-1990,3.046875,3.15625,239200,3.15625,3.046875,2.1969118118286133
21-08-1990,3.0625,3.0625,452000,3.09375,3.078125,2.2194440364837646
22-08-1990,3.015625,3.0625,333600,3.09375,3.015625,2.174380302429199
23-08-1990,2.9375,3.0,364000,3.0,2.96875,2.140580654144287
24-08-1990,2.921875,2.921875,326400,3.0,3.0,2.163113594055176
27-08-1990,2.953125,3.0,88000,3.0,2.953125,2.1293153762817383
28-08-1990,2.953125,2.953125,8000,2.984375,2.984375,2.1518476009368896
29-08-1990,2.9375,3.015625,140800,3.015625,2.9375,2.118049144744873
30-08-1990,2.90625,2.953125,65600,2.984375,2.984375,2.1518476009368896
31-08-1990,2.890625,2.953125,256800,2.984375,2.921875,2.1067821979522705
04-09-1990,2.9375,2.9375,20000,2.953125,2.953125,2.1293153762817383
05-09-1990,2.953125,2.953125,223200,3.1875,3.171875,2.287041664123535
06-09-1990,3.1875,3.203125,317600,3.296875,3.296875,2.3771705627441406
07-09-1990,3.296875,3.296875,160800,3.359375,3.359375,2.4222352504730225
10-09-1990,3.328125,3.328125,1408800,3.390625,3.359375,2.4222352504730225
11-09-1990,3.1875,3.375,963200,3.375,3.3125,2.388437271118164
12-09-1990,3.265625,3.34375,336000,3.34375,3.3125,2.388437271118164
13-09-1990,3.25,3.3125,405600,3.328125,3.25,2.3433735370635986
14-09-1990,3.25,3.25,209600,3.390625,3.390625,2.4447689056396484
17-09-1990,3.375,3.390625,1116000,3.46875,3.46875,2.501099109649658
18-09-1990,3.46875,3.46875,776800,3.765625,3.671875,2.647559881210327
19-09-1990,3.65625,3.6875,1624800,3.6875,3.65625,2.636294364929199
20-09-1990,3.53125,3.65625,432000,3.65625,3.53125,2.5461649894714355
21-09-1990,3.46875,3.484375,521600,3.5625,3.5625,2.568697214126587
24-09-1990,3.484375,3.5625,112800,3.5625,3.515625,2.5348992347717285
25-09-1990,3.5,3.5,221600,3.515625,3.515625,2.5348992347717285
26-09-1990,3.453125,3.515625,55200,3.515625,3.46875,2.501099109649658
27-09-1990,3.375,3.4375,72800,3.453125,3.375,2.4335031509399414
28-09-1990,3.28125,3.375,163200,3.375,3.34375,2.4109697341918945
01-10-1990,3.296875,3.328125,455200,3.390625,3.34375,2.4109697341918945
02-10-1990,3.328125,3.359375,72000,3.359375,3.359375,2.4222352504730225
03-10-1990,3.3125,3.34375,26400,3.34375,3.34375,2.4109697341918945
04-10-1990,3.25,3.34375,313600,3.34375,3.25,2.3433735370635986
05-10-1990,3.1875,3.234375,550400,3.296875,3.1875,2.298307418823242
08-10-1990,3.1875,3.203125,411200,3.234375,3.1875,2.298307418823242
09-10-1990,3.203125,3.203125,298400,3.375,3.34375,2.415706157684326
10-10-1990,3.21875,3.34375,200000,3.34375,3.234375,2.3366870880126953
11-10-1990,3.203125,3.25,34400,3.25,3.21875,2.3254003524780273
12-10-1990,3.171875,3.1875,89600,3.203125,3.203125,2.3141121864318848
15-10-1990,3.15625,3.203125,36800,3.203125,3.15625,2.280247688293457
16-10-1990,3.109375,3.140625,153600,3.15625,3.109375,2.2463808059692383
17-10-1990,3.09375,3.109375,11200,3.125,3.125,2.2576682567596436
18-10-1990,3.109375,3.109375,113600,3.125,3.109375,2.2463808059692383
19-10-1990,3.078125,3.109375,36800,3.109375,3.09375,2.2350940704345703
22-10-1990,3.0625,3.109375,68000,3.109375,3.0625,2.2125160694122314
23-10-1990,3.0625,3.0625,17600,3.109375,3.109375,2.2463808059692383
24-10-1990,3.125,3.125,120000,3.15625,3.15625,2.280247688293457
25-10-1990,3.1875,3.1875,112800,3.328125,3.328125,2.4044196605682373
26-10-1990,3.3125,3.3125,22400,3.359375,3.359375,2.4269940853118896
29-10-1990,3.359375,3.375,16000,3.375,3.359375,2.4269940853118896
30-10-1990,3.28125,3.34375,29600,3.359375,3.296875,2.381840467453003
31-10-1990,3.3125,3.3125,366400,3.453125,3.375,2.438283920288086
01-11-1990,3.359375,3.375,163200,3.375,3.375,2.438283920288086
02-11-1990,3.375,3.375,469600,3.53125,3.5,2.528589963912964
05-11-1990,3.46875,3.53125,426400,3.546875,3.46875,2.506014108657837
06-11-1990,3.421875,3.484375,8800,3.484375,3.421875,2.472148895263672
07-11-1990,3.375,3.421875,148000,3.421875,3.375,2.438283920288086
08-11-1990,3.34375,3.34375,37600,3.390625,3.390625,2.4495720863342285
09-11-1990,3.375,3.375,397600,3.4375,3.421875,2.472148895263672
12-11-1990,3.328125,3.390625,76800,3.390625,3.328125,2.4044196605682373
13-11-1990,3.109375,3.15625,208000,3.15625,3.109375,2.2463808059692383
14-11-1990,3.109375,3.125,75200,3.1875,3.1875,2.3028221130371094
15-11-1990,3.125,3.15625,45600,3.171875,3.140625,2.2689576148986816
16-11-1990,3.09375,3.140625,300800,3.15625,3.15625,2.280247688293457
19-11-1990,2.984375,3.15625,456800,3.15625,2.984375,2.1560752391815186
20-11-1990,2.84375,2.96875,329600,2.96875,2.921875,2.1109213829040527
21-11-1990,2.890625,2.90625,32800,2.96875,2.96875,2.1447856426239014
23-11-1990,2.96875,2.96875,18400,2.984375,2.96875,2.1447856426239014
26-11-1990,2.96875,2.984375,40000,3.0,2.96875,2.1447856426239014
27-11-1990,2.9375,2.984375,39200,2.984375,2.953125,2.1334986686706543
28-11-1990,2.90625,2.953125,145600,2.953125,2.921875,2.1109213829040527
29-11-1990,2.90625,2.90625,36800,2.90625,2.90625,2.099632740020752
30-11-1990,2.765625,2.875,236000,2.890625,2.8125,2.031903028488159
03-12-1990,2.609375,2.796875,366400,2.796875,2.75,1.9867486953735352
04-12-1990,2.671875,2.734375,230400,2.734375,2.71875,1.9641731977462769
05-12-1990,2.71875,2.71875,432000,2.796875,2.78125,2.0093271732330322
06-12-1990,2.734375,2.78125,248800,2.8125,2.75,1.9867486953735352
07-12-1990,2.625,2.71875,257600,2.71875,2.71875,1.9641731977462769
10-12-1990,2.703125,2.734375,179200,2.734375,2.71875,1.9641731977462769
11-12-1990,2.703125,2.703125,981600,2.78125,2.734375,1.975461721420288
12-12-1990,2.734375,2.75,493600,2.78125,2.78125,2.0093271732330322
13-12-1990,2.71875,2.75,908000,2.75,2.71875,1.9641731977462769
14-12-1990,2.65625,2.71875,207200,2.78125,2.78125,2.0093271732330322
17-12-1990,2.734375,2.796875,89600,2.828125,2.734375,1.975461721420288
18-12-1990,2.703125,2.765625,153600,2.796875,2.703125,1.9528839588165283
19-12-1990,2.640625,2.703125,277600,2.734375,2.640625,1.9077308177947998
20-12-1990,2.546875,2.609375,1007200,2.609375,2.5625,1.8512887954711914
21-12-1990,2.484375,2.484375,980000,2.515625,2.5,1.8061366081237793
24-12-1990,2.5,2.5,222400,2.546875,2.546875,1.8400013446807861
26-12-1990,2.5625,2.5625,93600,2.75,2.75,1.9867486953735352
27-12-1990,2.71875,2.75,51200,2.75,2.734375,1.975461721420288
28-12-1990,2.65625,2.71875,49600,2.71875,2.65625,1.9190194606781006
31-12-1990,2.53125,2.65625,364800,2.65625,2.65625,1.9190194606781006
02-01-1991,2.59375,2.625,36000,2.625,2.59375,1.873866081237793
03-01-1991,2.484375,2.59375,413600,2.59375,2.484375,1.7948474884033203
04-01-1991,2.328125,2.4375,216800,2.4375,2.328125,1.6819641590118408
07-01-1991,2.21875,2.296875,599200,2.3125,2.265625,1.636810541152954
08-01-1991,2.15625,2.25,679200,2.265625,2.15625,1.55779230594635
09-01-1991,2.140625,2.171875,572000,2.1875,2.140625,1.550999641418457
10-01-1991,2.09375,2.125,296000,2.140625,2.140625,1.550999641418457
11-01-1991,2.109375,2.109375,278400,2.21875,2.21875,1.607605218887329
14-01-1991,2.21875,2.234375,172800,2.265625,2.25,1.6302473545074463
15-01-1991,2.171875,2.25,92800,2.25,2.234375,1.6189265251159668
16-01-1991,2.171875,2.234375,50400,2.25,2.203125,1.59628427028656
17-01-1991,2.03125,2.1875,1341600,2.25,2.203125,1.59628427028656
18-01-1991,2.15625,2.203125,275200,2.21875,2.1875,1.584963083267212
21-01-1991,2.0625,2.15625,550400,2.15625,2.125,1.5396795272827148
22-01-1991,2.125,2.15625,174400,2.171875,2.125,1.5396795272827148
23-01-1991,2.140625,2.140625,837600,2.265625,2.25,1.6302473545074463
24-01-1991,2.265625,2.3125,495200,2.34375,2.28125,1.6528903245925903
25-01-1991,2.21875,2.3125,817600,2.375,2.25,1.6302473545074463
28-01-1991,2.203125,2.28125,679200,2.296875,2.234375,1.6189265251159668
29-01-1991,2.25,2.25,99200,2.265625,2.25,1.6302473545074463
30-01-1991,2.203125,2.21875,132000,2.25,2.234375,1.6189265251159668
31-01-1991,2.15625,2.21875,384800,2.21875,2.171875,1.5736418962478638
01-02-1991,2.15625,2.15625,869600,2.21875,2.21875,1.607605218887329
04-02-1991,2.203125,2.21875,961600,2.28125,2.25,1.6302473545074463
05-02-1991,2.25,2.25,1217600,2.375,2.28125,1.6528903245925903
06-02-1991,2.28125,2.28125,1186400,2.5,2.484375,1.8000646829605103
07-02-1991,2.546875,2.546875,1224000,2.78125,2.6875,1.9472395181655884
08-02-1991,2.640625,2.65625,94400,2.6875,2.671875,1.9359196424484253
11-02-1991,2.640625,2.6875,307200,2.75,2.703125,1.958561658859253
12-02-1991,2.59375,2.734375,216000,2.734375,2.59375,1.8793131113052368
13-02-1991,2.625,2.625,45600,2.703125,2.703125,1.958561658859253
14-02-1991,2.515625,2.6875,148800,2.6875,2.515625,1.8227077722549438
15-02-1991,2.484375,2.484375,356800,2.609375,2.609375,1.8906338214874268
19-02-1991,2.515625,2.59375,160800,2.59375,2.546875,1.845350980758667
20-02-1991,2.515625,2.546875,219200,2.625,2.625,1.9019548892974854
21-02-1991,2.59375,2.609375,188000,2.625,2.59375,1.8793131113052368
22-02-1991,2.453125,2.59375,408000,2.59375,2.453125,1.7774232625961304
25-02-1991,2.328125,2.453125,88800,2.453125,2.328125,1.686853051185608
26-02-1991,2.265625,2.3125,776800,2.328125,2.3125,1.6755321025848389
27-02-1991,2.34375,2.34375,1544000,2.453125,2.4375,1.766101360321045
28-02-1991,2.453125,2.46875,578400,2.59375,2.59375,1.8793131113052368
01-03-1991,2.53125,2.59375,692800,2.59375,2.546875,1.845350980758667
04-03-1991,2.546875,2.546875,555200,2.609375,2.59375,1.8793131113052368
05-03-1991,2.5625,2.5625,418400,2.578125,2.578125,1.867992639541626
06-03-1991,2.546875,2.546875,180800,2.59375,2.5625,1.8566715717315674
07-03-1991,2.5625,2.5625,280800,2.625,2.625,1.9019548892974854
08-03-1991,2.59375,2.625,442400,2.78125,2.671875,1.9359196424484253
11-03-1991,2.6875,2.6875,116000,2.75,2.71875,1.9698835611343384
12-03-1991,2.6875,2.75,163200,2.75,2.6875,1.9472395181655884
13-03-1991,2.59375,2.671875,147200,2.671875,2.59375,1.8793131113052368
14-03-1991,2.546875,2.578125,184000,2.59375,2.5625,1.8566715717315674
15-03-1991,2.546875,2.546875,289600,2.65625,2.625,1.9019548892974854
18-03-1991,2.625,2.640625,136000,2.6875,2.6875,1.9472395181655884
19-03-1991,2.609375,2.65625,172000,2.65625,2.625,1.9019548892974854
20-03-1991,2.625,2.625,71200,2.65625,2.65625,1.924599528312683
21-03-1991,2.65625,2.671875,327200,2.734375,2.734375,1.9812036752700806
22-03-1991,2.703125,2.734375,93600,2.734375,2.703125,1.958561658859253
25-03-1991,2.640625,2.71875,115200,2.71875,2.703125,1.958561658859253
26-03-1991,2.625,2.671875,447200,2.6875,2.65625,1.924599528312683
27-03-1991,2.578125,2.640625,86400,2.640625,2.578125,1.867992639541626
28-03-1991,2.515625,2.578125,70400,2.59375,2.515625,1.8227077722549438
01-04-1991,2.453125,2.53125,128000,2.53125,2.453125,1.7774232625961304
02-04-1991,2.359375,2.46875,367200,2.46875,2.375,1.7208168506622314
03-04-1991,2.3125,2.359375,1358400,2.4375,2.3125,1.6755321025848389
04-04-1991,2.34375,2.34375,1049600,2.40625,2.40625,1.7434600591659546
05-04-1991,2.421875,2.421875,73600,2.484375,2.484375,1.8000646829605103
08-04-1991,2.4375,2.46875,24000,2.46875,2.4375,1.766101360321045
09-04-1991,2.375,2.40625,198400,2.4375,2.4375,1.766101360321045
10-04-1991,2.34375,2.421875,198400,2.421875,2.390625,1.7365914583206177
11-04-1991,2.359375,2.40625,255200,2.4375,2.40625,1.7479420900344849
12-04-1991,2.390625,2.40625,398400,2.46875,2.46875,1.793343186378479
15-04-1991,2.5,2.5,258400,2.5625,2.546875,1.8500945568084717
16-04-1991,2.53125,2.53125,468000,2.640625,2.625,1.906844139099121
17-04-1991,2.578125,2.640625,662400,2.640625,2.578125,1.872794508934021
18-04-1991,2.609375,2.609375,68800,2.640625,2.625,1.906844139099121
19-04-1991,2.5625,2.609375,20000,2.625,2.578125,1.872794508934021
22-04-1991,2.484375,2.578125,263200,2.578125,2.5,1.8160429000854492
23-04-1991,2.453125,2.484375,69600,2.5,2.5,1.8160429000854492
24-04-1991,2.46875,2.5,44800,2.5,2.5,1.8160429000854492
25-04-1991,2.46875,2.484375,70400,2.484375,2.46875,1.793343186378479
26-04-1991,2.421875,2.453125,24000,2.453125,2.4375,1.770641565322876
29-04-1991,2.34375,2.421875,373600,2.421875,2.34375,1.7025396823883057
30-04-1991,2.328125,2.375,1024800,2.375,2.375,1.7252405881881714
01-05-1991,2.34375,2.375,403200,2.421875,2.421875,1.7592918872833252
02-05-1991,2.375,2.40625,714400,2.40625,2.375,1.7252405881881714
03-05-1991,2.359375,2.40625,464000,2.4375,2.390625,1.7365914583206177
06-05-1991,2.359375,2.375,11200,2.375,2.359375,1.7138901948928833
07-05-1991,2.28125,2.375,360800,2.375,2.34375,1.7025396823883057
08-05-1991,2.328125,2.34375,567200,2.453125,2.4375,1.770641565322876
09-05-1991,2.40625,2.453125,150400,2.46875,2.46875,1.793343186378479
10-05-1991,2.375,2.453125,88800,2.453125,2.375,1.7252405881881714
13-05-1991,2.28125,2.359375,872000,2.359375,2.28125,1.6571394205093384
14-05-1991,2.28125,2.28125,366400,2.375,2.3125,1.6798392534255981
15-05-1991,2.3125,2.3125,276000,2.40625,2.390625,1.7365914583206177
16-05-1991,2.421875,2.453125,404000,2.46875,2.421875,1.7592918872833252
17-05-1991,2.390625,2.421875,25600,2.421875,2.40625,1.7479420900344849
20-05-1991,2.390625,2.40625,121600,2.4375,2.40625,1.7479420900344849
21-05-1991,2.34375,2.4375,480800,2.4375,2.375,1.7252405881881714
22-05-1991,2.375,2.375,31200,2.390625,2.390625,1.7365914583206177
23-05-1991,2.375,2.40625,240800,2.421875,2.40625,1.7479420900344849
24-05-1991,2.375,2.421875,160800,2.453125,2.390625,1.7365914583206177
28-05-1991,2.375,2.375,60000,2.453125,2.4375,1.770641565322876
29-05-1991,2.421875,2.4375,334400,2.4375,2.4375,1.770641565322876
30-05-1991,2.421875,2.4375,521600,2.5,2.5,1.8160429000854492
31-05-1991,2.53125,2.53125,1612000,2.625,2.625,1.906844139099121
03-06-1991,2.609375,2.65625,256000,2.6875,2.625,1.906844139099121
04-06-1991,2.625,2.65625,1272800,2.671875,2.625,1.906844139099121
05-06-1991,2.578125,2.625,141600,2.625,2.578125,1.872794508934021
06-06-1991,2.5625,2.5625,201600,2.609375,2.59375,1.8841440677642822
07-06-1991,2.53125,2.59375,473600,2.59375,2.53125,1.838742971420288
10-06-1991,2.53125,2.546875,168000,2.5625,2.53125,1.838742971420288
11-06-1991,2.4375,2.53125,155200,2.53125,2.5,1.8160429000854492
12-06-1991,2.484375,2.5,51200,2.5,2.5,1.8160429000854492
13-06-1991,2.484375,2.5,1600,2.5,2.484375,1.804692029953003
14-06-1991,2.46875,2.46875,83200,2.46875,2.46875,1.793343186378479
17-06-1991,2.453125,2.46875,21600,2.46875,2.453125,1.7819924354553223
18-06-1991,2.4375,2.46875,341600,2.46875,2.46875,1.793343186378479
19-06-1991,2.46875,2.46875,170400,2.5,2.5,1.8160429000854492
20-06-1991,2.375,2.4375,30400,2.4375,2.375,1.7252405881881714
21-06-1991,2.3125,2.34375,251200,2.375,2.34375,1.7025396823883057
24-06-1991,2.3125,2.359375,124800,2.375,2.375,1.7252405881881714
25-06-1991,2.359375,2.375,39200,2.375,2.359375,1.7138901948928833
26-06-1991,2.296875,2.328125,188000,2.359375,2.3125,1.6798392534255981
27-06-1991,2.28125,2.3125,260800,2.34375,2.3125,1.6798392534255981
28-06-1991,2.25,2.3125,418400,2.3125,2.25,1.6344387531280518
01-07-1991,2.203125,2.25,188800,2.25,2.203125,1.6003879308700562
02-07-1991,2.21875,2.21875,127200,2.25,2.234375,1.6230881214141846
03-07-1991,2.203125,2.203125,267200,2.28125,2.25,1.6344387531280518
05-07-1991,2.25,2.25,3200,2.25,2.25,1.6344387531280518
08-07-1991,2.25,2.25,192800,2.296875,2.296875,1.6684894561767578
09-07-1991,2.234375,2.28125,359200,2.3125,2.265625,1.6502796411514282
10-07-1991,2.234375,2.25,56000,2.25,2.234375,1.6275171041488647
11-07-1991,2.25,2.25,152800,2.328125,2.3125,1.6844227313995361
12-07-1991,2.28125,2.34375,1025600,2.359375,2.296875,1.6730417013168335
15-07-1991,2.328125,2.328125,791200,2.375,2.375,1.729947805404663
16-07-1991,2.34375,2.359375,1204800,2.421875,2.421875,1.7640918493270874
17-07-1991,2.4375,2.453125,1052000,2.59375,2.59375,1.8892854452133179
18-07-1991,2.625,2.625,304800,2.671875,2.671875,1.9461920261383057
19-07-1991,2.609375,2.671875,73600,2.671875,2.625,1.9120475053787231
22-07-1991,2.5625,2.625,72000,2.625,2.59375,1.8892854452133179
23-07-1991,2.578125,2.609375,124000,2.625,2.578125,1.8779046535491943
24-07-1991,2.578125,2.578125,39200,2.59375,2.578125,1.8779046535491943
25-07-1991,2.5625,2.5625,232800,2.578125,2.5625,1.8665233850479126
26-07-1991,2.5625,2.5625,226400,2.59375,2.59375,1.8892854452133179
29-07-1991,2.59375,2.609375,6400,2.609375,2.609375,1.9006656408309937
30-07-1991,2.59375,2.59375,582400,2.65625,2.625,1.9120475053787231
31-07-1991,2.53125,2.5625,698400,2.578125,2.53125,1.8437600135803223
01-08-1991,2.53125,2.53125,248800,2.578125,2.5625,1.8665233850479126
02-08-1991,2.546875,2.546875,71200,2.546875,2.546875,1.8551424741744995
05-08-1991,2.546875,2.5625,96800,2.578125,2.5625,1.8665233850479126
06-08-1991,2.5625,2.5625,457600,2.625,2.59375,1.8892854452133179
07-08-1991,2.59375,2.59375,733600,2.625,2.625,1.9120475053787231
08-08-1991,2.625,2.640625,413600,2.6875,2.640625,1.923427939414978
09-08-1991,2.625,2.625,111200,2.65625,2.65625,1.9348111152648926
12-08-1991,2.640625,2.6875,223200,2.703125,2.65625,1.9348111152648926
13-08-1991,2.640625,2.640625,118400,2.6875,2.6875,1.9575722217559814
14-08-1991,2.671875,2.671875,372000,2.75,2.75,2.003099203109741
15-08-1991,2.71875,2.75,369600,2.75,2.75,2.003099203109741
16-08-1991,2.703125,2.734375,490400,2.734375,2.703125,1.9689533710479736
19-08-1991,2.609375,2.671875,91200,2.671875,2.609375,1.9006656408309937
20-08-1991,2.609375,2.609375,22400,2.625,2.625,1.9120475053787231
21-08-1991,2.609375,2.625,78400,2.625,2.625,1.9120475053787231
22-08-1991,2.5625,2.640625,292800,2.640625,2.59375,1.8892854452133179
23-08-1991,2.59375,2.59375,1125600,2.75,2.75,2.003099203109741
26-08-1991,2.734375,2.75,183200,2.78125,2.75,2.003099203109741
27-08-1991,2.75,2.75,362400,2.84375,2.8125,2.0486223697662354
28-08-1991,2.828125,2.84375,203200,2.953125,2.9375,2.1396727561950684
29-08-1991,2.921875,2.921875,416800,3.0,2.953125,2.1510539054870605
30-08-1991,2.90625,2.96875,236800,2.96875,2.921875,2.128291606903076
03-09-1991,2.78125,2.890625,230400,2.890625,2.78125,2.025859832763672
04-09-1991,2.75,2.765625,175200,2.8125,2.765625,2.014479875564575
05-09-1991,2.796875,2.796875,309600,2.828125,2.8125,2.0486223697662354
06-09-1991,2.78125,2.8125,55200,2.828125,2.828125,2.0600039958953857
09-09-1991,2.8125,2.8125,8000,2.84375,2.84375,2.0713846683502197
10-09-1991,2.8125,2.828125,452800,2.84375,2.84375,2.0713846683502197
11-09-1991,2.8125,2.828125,145600,2.84375,2.84375,2.0713846683502197
12-09-1991,2.84375,2.859375,48000,2.859375,2.84375,2.0713846683502197
13-09-1991,2.828125,2.875,366400,2.875,2.84375,2.0713846683502197
16-09-1991,2.828125,2.859375,433600,2.859375,2.84375,2.0713846683502197
17-09-1991,2.84375,2.84375,648800,2.890625,2.890625,2.1055285930633545
18-09-1991,2.90625,2.90625,136800,2.9375,2.9375,2.1396727561950684
19-09-1991,2.921875,2.953125,153600,3.03125,3.03125,2.2079577445983887
20-09-1991,3.0,3.078125,312000,3.078125,3.03125,2.2079577445983887
23-09-1991,2.96875,3.0625,113600,3.0625,2.96875,2.162435531616211
24-09-1991,2.875,2.96875,77600,2.96875,2.875,2.0941474437713623
25-09-1991,2.875,2.890625,7200,2.890625,2.875,2.0941474437713623
26-09-1991,2.875,2.90625,296000,2.953125,2.953125,2.1510539054870605
27-09-1991,2.953125,2.96875,70400,3.0,2.96875,2.162435531616211
30-09-1991,2.953125,2.953125,229600,2.984375,2.984375,2.1738173961639404
01-10-1991,2.859375,2.984375,1317600,3.0,2.859375,2.0827653408050537
02-10-1991,2.84375,2.84375,740800,2.9375,2.90625,2.116910457611084
03-10-1991,2.890625,2.90625,106400,2.90625,2.890625,2.1055285930633545
04-10-1991,2.859375,2.875,599200,2.890625,2.890625,2.1055285930633545
07-10-1991,2.859375,2.875,973600,2.9375,2.9375,2.1396727561950684
08-10-1991,2.90625,2.9375,735200,2.953125,2.9375,2.144235372543335
09-10-1991,2.90625,2.9375,43200,2.9375,2.90625,2.1214239597320557
10-10-1991,2.875,2.90625,144000,2.921875,2.90625,2.1214239597320557
11-10-1991,2.90625,2.921875,23200,2.921875,2.921875,2.132828712463379
14-10-1991,2.9375,2.9375,32000,2.984375,2.96875,2.1670453548431396
15-10-1991,2.984375,2.984375,181600,3.015625,3.015625,2.201261520385742
16-10-1991,3.0,3.046875,104000,3.078125,3.0,2.1898577213287354
17-10-1991,2.984375,3.0,89600,3.03125,3.03125,2.212665557861328
18-10-1991,3.0,3.046875,87200,3.046875,3.0,2.1898577213287354
21-10-1991,2.984375,2.984375,3200,2.984375,2.984375,2.178452491760254
22-10-1991,2.875,2.953125,495200,2.953125,2.875,2.0986132621765137
23-10-1991,2.890625,2.953125,95200,2.953125,2.890625,2.110018253326416
24-10-1991,2.84375,2.875,35200,2.875,2.84375,2.075801134109497
25-10-1991,2.75,2.8125,277600,2.8125,2.765625,2.0187745094299316
28-10-1991,2.75,2.75,181600,2.84375,2.84375,2.075801134109497
29-10-1991,2.75,2.859375,404800,2.859375,2.765625,2.0187745094299316
30-10-1991,2.78125,2.78125,12800,2.796875,2.796875,2.041585683822632
31-10-1991,2.796875,2.8125,37600,2.84375,2.84375,2.075801134109497
01-11-1991,2.84375,2.859375,62400,2.9375,2.9375,2.144235372543335
04-11-1991,2.921875,2.921875,624800,3.078125,3.03125,2.212665557861328
05-11-1991,3.046875,3.046875,421600,3.140625,3.109375,2.269695520401001
06-11-1991,3.03125,3.140625,228000,3.140625,3.03125,2.212665557861328
07-11-1991,3.0,3.046875,206400,3.046875,3.03125,2.212665557861328
08-11-1991,3.015625,3.015625,96800,3.0625,3.0625,2.235478401184082
11-11-1991,3.03125,3.0625,20000,3.0625,3.03125,2.212665557861328
12-11-1991,3.0,3.0,71200,3.046875,3.03125,2.212665557861328
13-11-1991,3.03125,3.03125,127200,3.140625,3.125,2.281100273132324
14-11-1991,3.015625,3.125,102400,3.125,3.03125,2.212665557861328
15-11-1991,2.890625,3.015625,141600,3.015625,2.9375,2.144235372543335
18-11-1991,2.875,2.9375,236800,2.9375,2.875,2.0986132621765137
19-11-1991,2.8125,2.890625,143200,2.890625,2.8125,2.052990198135376
20-11-1991,2.78125,2.796875,144000,2.796875,2.78125,2.0301785469055176
21-11-1991,2.78125,2.78125,202400,2.84375,2.796875,2.041585683822632
22-11-1991,2.75,2.78125,97600,2.78125,2.75,2.00736927986145
25-11-1991,2.75,2.75,16800,2.765625,2.765625,2.0187745094299316
26-11-1991,2.609375,2.75,346400,2.75,2.625,1.916123867034912
27-11-1991,2.625,2.640625,76800,2.65625,2.625,1.916123867034912
29-11-1991,2.640625,2.640625,28800,2.65625,2.65625,1.9389363527297974
02-12-1991,2.59375,2.65625,299200,2.671875,2.59375,1.8933132886886597
03-12-1991,2.59375,2.59375,97600,2.65625,2.65625,1.9389363527297974
04-12-1991,2.625,2.65625,20800,2.65625,2.625,1.916123867034912
05-12-1991,2.625,2.625,96800,2.6875,2.640625,1.9275293350219727
06-12-1991,2.640625,2.640625,858400,2.65625,2.640625,1.9275293350219727
09-12-1991,2.59375,2.625,57600,2.625,2.59375,1.8933132886886597
10-12-1991,2.484375,2.5625,171200,2.5625,2.5,1.824880838394165
11-12-1991,2.453125,2.515625,415200,2.5625,2.546875,1.8590977191925049
12-12-1991,2.515625,2.515625,124000,2.53125,2.53125,1.8476917743682861
13-12-1991,2.5,2.53125,319200,2.53125,2.5,1.824880838394165
16-12-1991,2.484375,2.5,372800,2.515625,2.515625,1.8362865447998047
17-12-1991,2.515625,2.515625,683200,2.53125,2.53125,1.8476917743682861
18-12-1991,2.546875,2.546875,112800,2.578125,2.578125,1.8819087743759155
19-12-1991,2.53125,2.5625,392800,2.5625,2.546875,1.8590977191925049
20-12-1991,2.5,2.53125,164800,2.53125,2.515625,1.8362865447998047
23-12-1991,2.421875,2.5,1115200,2.5,2.421875,1.7678534984588623
24-12-1991,2.40625,2.421875,107200,2.515625,2.515625,1.8362865447998047
26-12-1991,2.5,2.5,15200,2.515625,2.5,1.824880838394165
27-12-1991,2.46875,2.5,48000,2.5,2.46875,1.8020697832107544
30-12-1991,2.421875,2.46875,920800,2.46875,2.4375,1.7792584896087646
31-12-1991,2.421875,2.4375,116000,2.484375,2.4375,1.7792584896087646
02-01-1992,2.390625,2.421875,732000,2.421875,2.390625,1.7450422048568726
03-01-1992,2.375,2.390625,277600,2.390625,2.375,1.7336363792419434
06-01-1992,2.3125,2.390625,528000,2.390625,2.328125,1.6994194984436035
07-01-1992,2.140625,2.3125,584000,2.3125,2.140625,1.5625547170639038
08-01-1992,2.109375,2.125,692800,2.203125,2.125,1.551149606704712
09-01-1992,2.109375,2.125,348000,2.171875,2.171875,1.5853651762008667
10-01-1992,2.140625,2.15625,840800,2.234375,2.234375,1.6309870481491089
13-01-1992,2.234375,2.234375,456000,2.328125,2.296875,1.6766088008880615
14-01-1992,2.21875,2.296875,281600,2.3125,2.21875,1.6195818185806274
15-01-1992,2.234375,2.234375,377600,2.296875,2.28125,1.6652036905288696
16-01-1992,2.28125,2.28125,80800,2.328125,2.328125,1.6994194984436035
17-01-1992,2.359375,2.359375,47200,2.421875,2.421875,1.7678534984588623
20-01-1992,2.421875,2.421875,91200,2.53125,2.515625,1.8362865447998047
21-01-1992,2.515625,2.53125,578400,2.546875,2.515625,1.8362865447998047
22-01-1992,2.484375,2.515625,300000,2.515625,2.484375,1.8134746551513672
23-01-1992,2.453125,2.46875,313600,2.5,2.453125,1.790664792060852
24-01-1992,2.3125,2.453125,1104800,2.453125,2.3125,1.6880145072937012
27-01-1992,2.25,2.296875,292800,2.296875,2.265625,1.65379798412323
28-01-1992,2.1875,2.265625,2736800,2.265625,2.1875,1.5967705249786377
29-01-1992,2.15625,2.203125,463200,2.25,2.203125,1.6081761121749878
30-01-1992,2.140625,2.140625,405600,2.21875,2.1875,1.5967705249786377
31-01-1992,2.1875,2.203125,714400,2.296875,2.25,1.642392635345459
03-02-1992,2.21875,2.265625,96800,2.265625,2.234375,1.6309870481491089
04-02-1992,2.1875,2.21875,355200,2.234375,2.203125,1.6081761121749878
05-02-1992,2.15625,2.203125,604000,2.203125,2.171875,1.5853651762008667
06-02-1992,2.09375,2.1875,492800,2.1875,2.09375,1.528337836265564
07-02-1992,2.078125,2.078125,704000,2.21875,2.21875,1.6195818185806274
10-02-1992,2.234375,2.234375,782400,2.34375,2.328125,1.6994194984436035
11-02-1992,2.3125,2.328125,241600,2.34375,2.3125,1.6880145072937012
12-02-1992,2.28125,2.3125,446400,2.328125,2.3125,1.6880145072937012
13-02-1992,2.296875,2.3125,161600,2.3125,2.296875,1.6766088008880615
14-02-1992,2.28125,2.296875,190400,2.328125,2.328125,1.6994194984436035
18-02-1992,2.28125,2.3125,504800,2.3125,2.296875,1.6766088008880615
19-02-1992,2.265625,2.28125,20800,2.28125,2.265625,1.65379798412323
20-02-1992,2.265625,2.265625,260800,2.296875,2.296875,1.6766088008880615
21-02-1992,2.296875,2.296875,311200,2.328125,2.3125,1.6880145072937012
24-02-1992,2.3125,2.328125,249600,2.34375,2.3125,1.6880145072937012
25-02-1992,2.28125,2.3125,144000,2.3125,2.28125,1.6652036905288696
26-02-1992,2.25,2.265625,835200,2.265625,2.265625,1.65379798412323
27-02-1992,2.25,2.25,67200,2.296875,2.265625,1.65379798412323
28-02-1992,2.234375,2.234375,321600,2.265625,2.234375,1.6309870481491089
02-03-1992,2.25,2.25,588800,2.296875,2.25,1.642392635345459
03-03-1992,2.25,2.265625,608800,2.28125,2.25,1.642392635345459
04-03-1992,2.234375,2.234375,488000,2.25,2.25,1.642392635345459
05-03-1992,2.265625,2.265625,607200,2.28125,2.28125,1.6652036905288696
06-03-1992,2.28125,2.28125,404800,2.296875,2.28125,1.6652036905288696
09-03-1992,2.28125,2.28125,348000,2.328125,2.328125,1.6994194984436035
10-03-1992,2.328125,2.328125,348000,2.40625,2.390625,1.7450422048568726
11-03-1992,2.390625,2.40625,376000,2.40625,2.40625,1.7564486265182495
12-03-1992,2.40625,2.4375,347200,2.4375,2.40625,1.7564486265182495
13-03-1992,2.421875,2.4375,138400,2.46875,2.46875,1.8020697832107544
16-03-1992,2.40625,2.5,122400,2.5,2.40625,1.7564486265182495
17-03-1992,2.421875,2.4375,569600,2.4375,2.4375,1.7792584896087646
18-03-1992,2.40625,2.421875,46400,2.421875,2.40625,1.7564486265182495
19-03-1992,2.375,2.4375,394400,2.4375,2.40625,1.7564486265182495
20-03-1992,2.453125,2.46875,232000,2.484375,2.46875,1.8020697832107544
23-03-1992,2.5,2.5,545600,2.546875,2.5,1.824880838394165
24-03-1992,2.5,2.5,618400,2.578125,2.5625,1.870503306388855
25-03-1992,2.5625,2.578125,116800,2.578125,2.578125,1.8819087743759155
26-03-1992,2.609375,2.609375,959200,2.734375,2.6875,1.9617459774017334
27-03-1992,2.609375,2.625,236800,2.65625,2.625,1.916123867034912
30-03-1992,2.609375,2.625,324800,2.625,2.625,1.916123867034912
31-03-1992,2.640625,2.640625,307200,2.65625,2.65625,1.9389363527297974
01-04-1992,2.609375,2.65625,172800,2.65625,2.609375,1.9047189950942993
02-04-1992,2.578125,2.609375,878400,2.609375,2.59375,1.8933132886886597
03-04-1992,2.546875,2.5625,109600,2.5625,2.5625,1.870503306388855
06-04-1992,2.578125,2.578125,336000,2.734375,2.734375,1.9959633350372314
07-04-1992,2.6875,2.734375,612000,2.734375,2.6875,1.9617459774017334
08-04-1992,2.625,2.671875,771200,2.671875,2.625,1.916123867034912
09-04-1992,2.609375,2.609375,170400,2.75,2.75,2.0121610164642334
10-04-1992,2.734375,2.734375,213600,2.75,2.734375,2.0007266998291016
13-04-1992,2.75,2.765625,141600,2.78125,2.765625,2.023592472076416
14-04-1992,2.78125,2.78125,228000,2.8125,2.8125,2.0578906536102295
15-04-1992,2.8125,2.8125,312000,2.828125,2.828125,2.069324254989624
16-04-1992,2.8125,2.8125,39200,2.828125,2.8125,2.0578906536102295
20-04-1992,2.8125,2.8125,245600,2.890625,2.890625,2.1150543689727783
21-04-1992,2.875,2.921875,337600,2.921875,2.90625,2.1264865398406982
22-04-1992,2.875,2.890625,8800,2.890625,2.875,2.1036221981048584
23-04-1992,2.84375,2.875,1366400,2.984375,2.875,2.1036221981048584
24-04-1992,3.0,3.03125,687200,3.171875,3.0,2.1950838565826416
27-04-1992,3.03125,3.0625,511200,3.09375,3.046875,2.229381561279297
28-04-1992,3.015625,3.046875,234400,3.046875,3.03125,2.2179460525512695
29-04-1992,3.03125,3.046875,237600,3.046875,3.03125,2.2179460525512695
30-04-1992,3.03125,3.046875,1008800,3.0625,3.046875,2.229381561279297
01-05-1992,3.03125,3.03125,146400,3.046875,3.046875,2.229381561279297
04-05-1992,3.0625,3.0625,251200,3.078125,3.0625,2.240814208984375
05-05-1992,3.046875,3.046875,532000,3.078125,3.078125,2.2522475719451904
06-05-1992,3.015625,3.078125,792800,3.078125,3.015625,2.206514835357666
07-05-1992,2.96875,3.015625,61600,3.015625,2.96875,2.172218084335327
08-05-1992,2.9375,3.0,42400,3.0,2.953125,2.1607842445373535
11-05-1992,2.90625,2.953125,91200,2.953125,2.90625,2.1264865398406982
12-05-1992,2.75,2.921875,1191200,2.921875,2.796875,2.046457290649414
13-05-1992,2.765625,2.796875,261600,2.796875,2.765625,2.023592472076416
14-05-1992,2.6875,2.765625,1236800,2.84375,2.84375,2.0807554721832275
15-05-1992,2.8125,2.828125,509600,2.90625,2.890625,2.1150543689727783
18-05-1992,2.90625,2.90625,431200,3.015625,3.0,2.1950838565826416
19-05-1992,2.953125,3.0,572000,3.046875,3.046875,2.229381561279297
20-05-1992,3.0625,3.0625,200800,3.09375,3.09375,2.263679265975952
21-05-1992,3.078125,3.078125,946400,3.15625,3.09375,2.263679265975952
22-05-1992,3.078125,3.09375,230400,3.15625,3.140625,2.2979769706726074
26-05-1992,3.125,3.140625,1300800,3.1875,3.1875,2.3322761058807373
27-05-1992,3.125,3.203125,1122400,3.25,3.125,2.2865447998046875
28-05-1992,3.078125,3.140625,627200,3.140625,3.125,2.2865447998046875
29-05-1992,3.078125,3.125,368800,3.125,3.09375,2.263679265975952
01-06-1992,3.078125,3.078125,348800,3.171875,3.171875,2.320842742919922
02-06-1992,3.125,3.140625,108000,3.15625,3.140625,2.2979769706726074
03-06-1992,3.125,3.15625,1278400,3.1875,3.15625,2.309410333633423
04-06-1992,3.125,3.125,1169600,3.140625,3.140625,2.2979769706726074
05-06-1992,3.140625,3.15625,816800,3.1875,3.1875,2.3322761058807373
08-06-1992,3.21875,3.21875,1822400,3.375,3.3125,2.4237382411956787
09-06-1992,3.28125,3.3125,2077600,3.34375,3.3125,2.4237382411956787
10-06-1992,3.21875,3.3125,778400,3.3125,3.28125,2.4008731842041016
11-06-1992,3.28125,3.28125,438400,3.40625,3.40625,2.4923336505889893
12-06-1992,3.34375,3.375,2042400,3.375,3.34375,2.446603775024414
15-06-1992,3.296875,3.328125,2438400,3.328125,3.3125,2.4237382411956787
16-06-1992,3.296875,3.328125,660800,3.328125,3.296875,2.4123053550720215
17-06-1992,3.21875,3.3125,673600,3.3125,3.234375,2.36657452583313
18-06-1992,3.21875,3.21875,948800,3.265625,3.234375,2.36657452583313
19-06-1992,3.234375,3.25,417600,3.265625,3.234375,2.36657452583313
22-06-1992,3.203125,3.203125,568000,3.21875,3.203125,2.3437092304229736
23-06-1992,3.203125,3.203125,518400,3.21875,3.203125,2.3437092304229736
24-06-1992,3.171875,3.21875,224000,3.21875,3.21875,2.3551406860351562
25-06-1992,3.125,3.21875,307200,3.21875,3.125,2.2865447998046875
26-06-1992,3.109375,3.125,629600,3.140625,3.140625,2.2979769706726074
29-06-1992,3.125,3.125,1169600,3.1875,3.171875,2.320842742919922
30-06-1992,3.15625,3.1875,1156800,3.1875,3.1875,2.3322761058807373
01-07-1992,3.203125,3.21875,694400,3.25,3.25,2.378007411956787
02-07-1992,3.25,3.28125,2007200,3.296875,3.28125,2.4008731842041016
06-07-1992,3.296875,3.3125,771200,3.328125,3.3125,2.4237382411956787
07-07-1992,3.3125,3.3125,655200,3.359375,3.328125,2.435170888900757
08-07-1992,3.3125,3.328125,480800,3.34375,3.328125,2.435170888900757
09-07-1992,3.328125,3.34375,424000,3.375,3.359375,2.462660551071167
10-07-1992,3.328125,3.390625,568800,3.390625,3.328125,2.4397530555725098
13-07-1992,3.328125,3.328125,624800,3.359375,3.359375,2.462660551071167
14-07-1992,3.390625,3.390625,627200,3.625,3.578125,2.6230201721191406
15-07-1992,3.515625,3.59375,465600,3.609375,3.53125,2.5886566638946533
16-07-1992,3.390625,3.5,143200,3.5,3.421875,2.5084776878356934
17-07-1992,3.421875,3.4375,45600,3.453125,3.4375,2.5199320316314697
20-07-1992,3.390625,3.4375,645600,3.453125,3.390625,2.485569477081299
21-07-1992,3.390625,3.390625,224000,3.421875,3.40625,2.497022867202759
22-07-1992,3.40625,3.40625,235200,3.484375,3.484375,2.5542945861816406
23-07-1992,3.46875,3.5,112000,3.515625,3.5,2.565748929977417
24-07-1992,3.5,3.5,329600,3.609375,3.609375,2.6459286212921143
27-07-1992,3.5625,3.609375,66400,3.609375,3.59375,2.634474515914917
28-07-1992,3.53125,3.59375,91200,3.59375,3.5625,2.611565113067627
29-07-1992,3.546875,3.5625,84800,3.578125,3.578125,2.6230201721191406
30-07-1992,3.5625,3.5625,565600,3.640625,3.640625,2.6688361167907715
31-07-1992,3.625,3.640625,500800,3.65625,3.640625,2.6688361167907715
03-08-1992,3.625,3.625,492000,3.703125,3.703125,2.7146530151367188
04-08-1992,3.6875,3.6875,398400,3.71875,3.71875,2.7261078357696533
05-08-1992,3.375,3.59375,268800,3.59375,3.40625,2.497022867202759
06-08-1992,3.171875,3.25,1166400,3.265625,3.25,2.382481575012207
07-08-1992,3.25,3.25,996000,3.515625,3.515625,2.5772037506103516
10-08-1992,3.5,3.515625,88000,3.5625,3.546875,2.6001110076904297
11-08-1992,3.546875,3.546875,2608000,3.5625,3.546875,2.6001110076904297
12-08-1992,3.5625,3.5625,92800,3.59375,3.59375,2.634474515914917
13-08-1992,3.609375,3.625,684800,3.734375,3.734375,2.737563371658325
14-08-1992,3.734375,3.78125,1344000,3.84375,3.75,2.749016046524048
17-08-1992,3.671875,3.71875,1498400,3.71875,3.6875,2.7031991481781006
18-08-1992,3.578125,3.671875,823200,3.6875,3.59375,2.634474515914917
19-08-1992,3.5,3.5,844800,3.6875,3.5625,2.611565113067627
20-08-1992,3.5625,3.625,7611200,3.640625,3.59375,2.634474515914917
21-08-1992,3.59375,3.609375,1631200,3.640625,3.59375,2.634474515914917
24-08-1992,3.578125,3.578125,1412000,3.609375,3.578125,2.6230201721191406
25-08-1992,3.578125,3.578125,1002400,3.71875,3.671875,2.691744804382324
26-08-1992,3.6875,3.6875,1988000,3.75,3.75,2.749016046524048
27-08-1992,3.71875,3.734375,872800,3.796875,3.78125,2.771925687789917
28-08-1992,3.8125,3.8125,1732800,3.9375,3.9375,2.8864667415618896
31-08-1992,3.84375,3.90625,1392800,3.984375,3.875,2.8406503200531006
01-09-1992,3.859375,3.875,740000,3.9375,3.90625,2.8635590076446533
02-09-1992,3.875,3.9375,458400,3.953125,3.890625,2.8521053791046143
03-09-1992,3.890625,3.90625,617600,3.921875,3.921875,2.8750131130218506
04-09-1992,3.921875,3.921875,190400,3.96875,3.953125,2.897920608520508
08-09-1992,3.953125,3.953125,1150400,4.09375,4.078125,2.9895551204681396
09-09-1992,4.0625,4.078125,660000,4.09375,4.09375,3.0010104179382324
10-09-1992,4.0625,4.09375,809600,4.109375,4.078125,2.9895551204681396
11-09-1992,4.0625,4.078125,549600,4.109375,4.109375,3.0124642848968506
14-09-1992,4.109375,4.140625,684000,4.171875,4.125,3.023918390274048
15-09-1992,4.109375,4.125,557600,4.140625,4.109375,3.0124642848968506
16-09-1992,4.09375,4.109375,723200,4.171875,4.125,3.023918390274048
17-09-1992,4.125,4.125,565600,4.28125,4.21875,3.0926434993743896
18-09-1992,4.1875,4.1875,668000,4.3125,4.3125,3.161367416381836
21-09-1992,4.328125,4.328125,808000,4.34375,4.34375,3.184277296066284
22-09-1992,4.296875,4.3125,662400,4.375,4.359375,3.195730447769165
23-09-1992,4.359375,4.375,898400,4.46875,4.375,3.207185745239258
24-09-1992,4.390625,4.390625,1256800,4.484375,4.46875,3.275911569595337
25-09-1992,4.203125,4.421875,1837600,4.4375,4.25,3.115553617477417
28-09-1992,4.109375,4.25,1749600,4.25,4.125,3.023918390274048
29-09-1992,4.171875,4.203125,276800,4.234375,4.234375,3.104097843170166
30-09-1992,4.15625,4.21875,330400,4.234375,4.15625,3.0468273162841797
01-10-1992,4.03125,4.140625,378400,4.140625,4.03125,2.955192804336548
02-10-1992,4.015625,4.046875,772800,4.078125,4.046875,2.966646432876587
05-10-1992,3.953125,4.046875,312000,4.046875,3.96875,2.9093761444091797
06-10-1992,3.90625,3.96875,885600,3.96875,3.9375,2.8864667415618896
07-10-1992,3.953125,3.953125,649600,4.015625,3.984375,2.9208297729492188
08-10-1992,3.96875,3.96875,266400,4.0625,4.0,2.936892032623291
09-10-1992,3.90625,3.96875,112000,4.03125,3.9375,2.8910012245178223
12-10-1992,3.9375,3.9375,351200,3.953125,3.953125,2.9024739265441895
13-10-1992,3.890625,3.9375,412000,3.953125,3.9375,2.8910012245178223
14-10-1992,3.921875,3.9375,341600,3.953125,3.9375,2.8910012245178223
15-10-1992,3.90625,3.9375,205600,3.9375,3.90625,2.868058204650879
16-10-1992,3.921875,3.921875,1151200,4.078125,4.0625,2.982780694961548
19-10-1992,4.0625,4.0625,756000,4.3125,4.28125,3.143390417098999
20-10-1992,4.203125,4.265625,209600,4.265625,4.21875,3.097501039505005
21-10-1992,4.140625,4.203125,104800,4.203125,4.15625,3.0516135692596436
22-10-1992,3.953125,4.140625,365600,4.140625,3.953125,2.9024739265441895
23-10-1992,3.9375,3.96875,101600,3.96875,3.953125,2.9024739265441895
26-10-1992,3.953125,3.953125,396800,4.015625,4.0,2.936892032623291
27-10-1992,3.8125,3.984375,318400,3.984375,3.859375,2.833641290664673
28-10-1992,3.71875,3.859375,920800,3.859375,3.828125,2.810697317123413
29-10-1992,3.828125,3.828125,348000,3.90625,3.84375,2.822169303894043
30-10-1992,3.8125,3.875,143200,3.875,3.8125,2.7992234230041504
02-11-1992,3.828125,3.828125,156800,3.875,3.875,2.845113515853882
03-11-1992,3.75,3.875,296800,3.875,3.75,2.7533352375030518
04-11-1992,3.65625,3.765625,464000,3.78125,3.65625,2.6845028400421143
05-11-1992,3.46875,3.625,1245600,3.625,3.484375,2.5583078861236572
06-11-1992,3.53125,3.53125,1823200,3.671875,3.65625,2.6845028400421143
09-11-1992,3.5,3.625,1322400,3.65625,3.546875,2.6041970252990723
10-11-1992,3.5625,3.5625,1669600,3.625,3.625,2.6615567207336426
11-11-1992,3.5625,3.625,551200,3.625,3.5625,2.615668296813965
12-11-1992,3.5625,3.625,1320800,3.640625,3.578125,2.627140522003174
13-11-1992,3.59375,3.609375,324000,3.640625,3.625,2.6615567207336426
16-11-1992,3.609375,3.609375,257600,3.65625,3.65625,2.6845028400421143
17-11-1992,3.625,3.625,304000,3.640625,3.625,2.6615567207336426
18-11-1992,3.625,3.625,693600,3.640625,3.640625,2.6730294227600098
19-11-1992,3.46875,3.609375,821600,3.640625,3.5,2.569780111312866
20-11-1992,3.53125,3.53125,536800,3.59375,3.59375,2.638613224029541
23-11-1992,3.5625,3.5625,660000,3.671875,3.625,2.6615567207336426
24-11-1992,3.578125,3.609375,503200,3.609375,3.59375,2.638613224029541
25-11-1992,3.578125,3.578125,96000,3.609375,3.59375,2.638613224029541
27-11-1992,3.578125,3.59375,230400,3.625,3.625,2.6615567207336426
30-11-1992,3.53125,3.625,539200,3.625,3.546875,2.6041970252990723
01-12-1992,3.53125,3.546875,1116800,3.546875,3.53125,2.5927224159240723
02-12-1992,3.53125,3.53125,721600,3.578125,3.578125,2.627140522003174
03-12-1992,3.421875,3.5625,1191200,3.5625,3.4375,2.5238916873931885
04-12-1992,3.421875,3.4375,1249600,3.5,3.5,2.569780111312866
07-12-1992,3.484375,3.484375,167200,3.546875,3.5,2.569780111312866
08-12-1992,3.453125,3.5,580000,3.515625,3.484375,2.5583078861236572
09-12-1992,3.484375,3.5,374400,3.546875,3.53125,2.5927224159240723
10-12-1992,3.484375,3.546875,1601600,3.609375,3.609375,2.6500866413116455
11-12-1992,3.65625,3.65625,151200,3.703125,3.671875,2.6959731578826904
14-12-1992,3.609375,3.671875,920000,3.671875,3.65625,2.6845028400421143
15-12-1992,3.609375,3.640625,406400,3.640625,3.625,2.6615567207336426
16-12-1992,3.59375,3.609375,402400,3.625,3.59375,2.638613224029541
17-12-1992,3.5625,3.609375,52800,3.609375,3.5625,2.615668296813965
18-12-1992,3.578125,3.59375,295200,3.59375,3.59375,2.638613224029541
21-12-1992,3.546875,3.578125,488000,3.578125,3.546875,2.6041970252990723
22-12-1992,3.53125,3.5625,960800,3.5625,3.546875,2.6041970252990723
23-12-1992,3.515625,3.546875,1008000,3.546875,3.515625,2.581251382827759
24-12-1992,3.53125,3.546875,655200,3.59375,3.59375,2.638613224029541
28-12-1992,3.53125,3.578125,97600,3.578125,3.546875,2.6041970252990723
29-12-1992,3.53125,3.546875,596000,3.59375,3.5625,2.615668296813965
30-12-1992,3.546875,3.578125,639200,3.578125,3.546875,2.6041970252990723
31-12-1992,3.5625,3.5625,376000,3.6875,3.671875,2.6959731578826904
04-01-1993,3.609375,3.6875,597600,3.71875,3.609375,2.6500866413116455
05-01-1993,3.578125,3.609375,715200,3.6875,3.6875,2.707446575164795
06-01-1993,3.59375,3.6875,928800,3.6875,3.609375,2.6500866413116455
07-01-1993,3.5625,3.609375,333600,3.609375,3.578125,2.627140522003174
08-01-1993,3.46875,3.578125,1617600,3.578125,3.46875,2.5468358993530273
11-01-1993,3.375,3.484375,410400,3.484375,3.390625,2.4948675632476807
12-01-1993,3.359375,3.390625,269600,3.40625,3.40625,2.5063650608062744
13-01-1993,3.359375,3.40625,826400,3.484375,3.46875,2.5523526668548584
14-01-1993,3.34375,3.4375,619200,3.453125,3.34375,2.460376501083374
15-01-1993,3.359375,3.375,1232800,3.421875,3.390625,2.4948675632476807
18-01-1993,3.359375,3.390625,460000,3.390625,3.375,2.4833719730377197
19-01-1993,3.359375,3.359375,1157600,3.484375,3.453125,2.54085636138916
20-01-1993,3.4375,3.453125,132800,3.484375,3.46875,2.5523526668548584
21-01-1993,3.4375,3.4375,272800,3.5,3.5,2.5753467082977295
22-01-1993,3.5,3.515625,540800,3.59375,3.59375,2.6443300247192383
25-01-1993,3.578125,3.578125,969600,3.703125,3.6875,2.7133138179779053
26-01-1993,3.78125,3.8125,1224000,3.875,3.78125,2.7822954654693604
27-01-1993,3.703125,3.734375,636000,3.765625,3.75,2.759303092956543
28-01-1993,3.75,3.765625,773600,3.90625,3.90625,2.8742728233337402
29-01-1993,3.890625,3.90625,492800,4.0,3.96875,2.9202609062194824
01-02-1993,4.0,4.0,1876800,4.078125,4.0625,2.9892449378967285
02-02-1993,4.046875,4.046875,1044000,4.09375,4.09375,3.012237787246704
03-02-1993,4.09375,4.09375,1448000,4.359375,4.296875,3.1616992950439453
04-02-1993,4.328125,4.328125,1330400,4.4375,4.4375,3.265174150466919
05-02-1993,4.4375,4.4375,1606400,4.515625,4.5,3.3111612796783447
08-02-1993,4.46875,4.5,1975200,4.5,4.5,3.3111612796783447
09-02-1993,4.40625,4.5,756000,4.5,4.421875,3.2536754608154297
10-02-1993,4.359375,4.421875,800000,4.453125,4.375,3.2191858291625977
11-02-1993,4.359375,4.359375,971200,4.5,4.484375,3.299664258956909
12-02-1993,4.46875,4.484375,932000,4.484375,4.484375,3.299664258956909
16-02-1993,4.34375,4.46875,292800,4.46875,4.34375,3.196190118789673
17-02-1993,4.34375,4.359375,632800,4.40625,4.390625,3.230682849884033
18-02-1993,4.421875,4.421875,604800,4.484375,4.4375,3.265174150466919
19-02-1993,4.421875,4.4375,3408800,4.515625,4.5,3.3111612796783447
22-02-1993,4.5,4.5,1140000,4.609375,4.5625,3.3571505546569824
23-02-1993,4.5,4.59375,664000,4.59375,4.546875,3.345653772354126
24-02-1993,4.46875,4.515625,499200,4.515625,4.484375,3.299664258956909
25-02-1993,4.359375,4.484375,259200,4.484375,4.359375,3.2076876163482666
26-02-1993,4.359375,4.390625,128000,4.421875,4.40625,3.2421786785125732
01-03-1993,4.421875,4.4375,1396000,4.53125,4.4375,3.265174150466919
02-03-1993,4.4375,4.46875,332800,4.484375,4.453125,3.2766709327697754
03-03-1993,4.46875,4.46875,4088800,4.84375,4.78125,3.518109083175659
04-03-1993,4.640625,4.75,913600,4.78125,4.734375,3.48361873626709
05-03-1993,4.6875,4.71875,335200,4.734375,4.6875,3.449126958847046
08-03-1993,4.703125,4.703125,472000,4.796875,4.78125,3.518109083175659
09-03-1993,4.75,4.796875,324000,4.796875,4.78125,3.518109083175659
10-03-1993,4.734375,4.78125,199200,4.8125,4.8125,3.5411038398742676
11-03-1993,4.796875,4.8125,213600,4.921875,4.890625,3.598590612411499
12-03-1993,4.796875,4.921875,702400,4.921875,4.84375,3.564098834991455
15-03-1993,4.84375,4.84375,209600,4.875,4.875,3.5870909690856934
16-03-1993,4.84375,4.859375,316800,4.875,4.859375,3.575594663619995
17-03-1993,4.859375,4.875,136800,4.984375,4.984375,3.6675705909729004
18-03-1993,4.921875,4.96875,444000,5.0,5.0,3.6790692806243896
19-03-1993,4.96875,4.984375,300800,5.0,4.96875,3.6560757160186768
22-03-1993,4.96875,4.984375,640800,5.0,4.984375,3.6675705909729004
23-03-1993,4.96875,5.015625,100800,5.015625,4.96875,3.6560757160186768
24-03-1993,4.96875,4.96875,574400,5.078125,4.96875,3.6560757160186768
25-03-1993,4.84375,4.90625,1020000,4.921875,4.84375,3.564098834991455
26-03-1993,4.8125,4.84375,753600,4.921875,4.90625,3.6100869178771973
29-03-1993,4.921875,4.921875,589600,4.984375,4.984375,3.6675705909729004
30-03-1993,5.0,5.0,663200,5.03125,5.03125,3.7020623683929443
31-03-1993,4.96875,5.03125,558400,5.03125,5.015625,3.690565824508667
01-04-1993,4.984375,5.03125,537600,5.03125,5.0,3.6790692806243896
02-04-1993,4.859375,4.953125,240800,4.953125,4.890625,3.598590612411499
05-04-1993,4.875,4.90625,292800,4.90625,4.90625,3.6100869178771973
06-04-1993,4.875,4.90625,604800,4.90625,4.875,3.5870909690856934
07-04-1993,4.8125,4.84375,860000,4.875,4.875,3.5870909690856934
08-04-1993,4.859375,4.859375,24000,4.875,4.875,3.592618703842163
12-04-1993,4.859375,4.859375,325600,4.96875,4.96875,3.6617074012756348
13-04-1993,4.84375,4.96875,1076800,5.03125,4.875,3.592618703842163
14-04-1993,4.84375,4.890625,447200,4.890625,4.84375,3.569591522216797
15-04-1993,4.8125,4.875,231200,4.921875,4.8125,3.546560049057007
16-04-1993,4.796875,4.828125,356800,4.84375,4.84375,3.569591522216797
19-04-1993,4.828125,4.828125,173600,4.890625,4.875,3.592618703842163
20-04-1993,4.90625,4.90625,1133600,5.0625,4.984375,3.6732230186462402
21-04-1993,4.875,5.015625,185600,5.015625,4.875,3.592618703842163
22-04-1993,4.671875,4.84375,335200,4.84375,4.671875,3.442927598953247
23-04-1993,4.46875,4.671875,786400,4.671875,4.5,3.316265344619751
26-04-1993,4.515625,4.53125,367200,4.640625,4.625,3.4083809852600098
27-04-1993,4.625,4.65625,108000,4.65625,4.640625,3.4198968410491943
28-04-1993,4.625,4.625,189600,4.640625,4.640625,3.4198968410491943
29-04-1993,4.625,4.65625,383200,4.75,4.75,3.500500440597534
30-04-1993,4.75,4.75,779200,4.96875,4.921875,3.6271634101867676
03-05-1993,4.953125,4.953125,249600,4.984375,4.953125,3.650193214416504
04-05-1993,4.90625,4.921875,1332800,4.953125,4.921875,3.6271634101867676
05-05-1993,4.921875,4.921875,65600,4.9375,4.921875,3.6271634101867676
06-05-1993,4.921875,4.921875,664800,5.0,4.9375,3.638679027557373
07-05-1993,4.90625,4.921875,186400,4.96875,4.921875,3.6271634101867676
10-05-1993,4.8125,4.9375,828000,4.9375,4.8125,3.546560049057007
11-05-1993,4.78125,4.78125,1120800,4.953125,4.9375,3.638679027557373
12-05-1993,4.90625,4.9375,852000,4.984375,4.953125,3.650193214416504
13-05-1993,4.90625,4.90625,702400,5.09375,5.0625,3.730794906616211
14-05-1993,5.0625,5.0625,931200,5.265625,5.171875,3.81139874458313
17-05-1993,5.15625,5.171875,390400,5.203125,5.203125,3.8344295024871826
18-05-1993,5.203125,5.203125,340800,5.328125,5.296875,3.903517723083496
19-05-1993,5.1875,5.3125,412800,5.3125,5.234375,3.8574607372283936
20-05-1993,5.21875,5.21875,216000,5.25,5.234375,3.8574607372283936
21-05-1993,5.203125,5.234375,400000,5.234375,5.21875,3.845945358276367
24-05-1993,5.21875,5.25,496000,5.25,5.234375,3.8574607372283936
25-05-1993,5.171875,5.1875,400800,5.25,5.1875,3.8229122161865234
26-05-1993,5.15625,5.1875,188000,5.203125,5.203125,3.8344295024871826
27-05-1993,5.203125,5.203125,511200,5.3125,5.3125,3.9150328636169434
28-05-1993,5.28125,5.296875,473600,5.3125,5.3125,3.9150328636169434
01-06-1993,5.328125,5.34375,619200,5.4375,5.40625,3.9841232299804688
02-06-1993,5.40625,5.40625,522400,5.625,5.5625,4.099271297454834
03-06-1993,5.484375,5.5625,403200,5.5625,5.515625,4.064725399017334
04-06-1993,5.484375,5.5,889600,5.515625,5.5,4.053210735321045
07-06-1993,5.484375,5.5,482400,5.515625,5.5,4.053210735321045
08-06-1993,5.421875,5.484375,277600,5.484375,5.4375,4.007152557373047
09-06-1993,5.40625,5.40625,262400,5.5,5.5,4.053210735321045
10-06-1993,5.4375,5.484375,779200,5.484375,5.4375,4.007152557373047
11-06-1993,5.234375,5.40625,606400,5.40625,5.234375,3.8574607372283936
14-06-1993,5.125,5.21875,763200,5.21875,5.125,3.776857852935791
15-06-1993,5.125,5.125,288800,5.15625,5.125,3.776857852935791
16-06-1993,5.140625,5.140625,219200,5.203125,5.203125,3.8344295024871826
17-06-1993,5.21875,5.21875,193600,5.328125,5.25,3.868974447250366
18-06-1993,5.265625,5.28125,224800,5.296875,5.265625,3.880488634109497
21-06-1993,5.28125,5.28125,292800,5.359375,5.34375,3.9380640983581543
22-06-1993,5.265625,5.34375,1112000,5.34375,5.265625,3.880488634109497
23-06-1993,5.265625,5.265625,2466400,5.296875,5.296875,3.903517723083496
24-06-1993,5.0625,5.296875,637600,5.296875,5.125,3.776857852935791
25-06-1993,5.109375,5.125,36000,5.125,5.125,3.776857852935791
28-06-1993,5.125,5.125,204800,5.140625,5.140625,3.7883718013763428
29-06-1993,4.984375,5.109375,648000,5.125,5.046875,3.719280481338501
30-06-1993,5.03125,5.0625,552000,5.09375,5.09375,3.7538273334503174
01-07-1993,5.015625,5.078125,376800,5.078125,5.046875,3.719280481338501
02-07-1993,5.015625,5.0625,100000,5.0625,5.046875,3.719280481338501
06-07-1993,5.0,5.046875,437600,5.09375,5.0,3.6847376823425293
07-07-1993,4.96875,4.96875,1369600,5.078125,5.078125,3.742310047149658
08-07-1993,5.078125,5.078125,955200,5.1875,5.1875,3.8229122161865234
09-07-1993,5.171875,5.171875,1352000,5.25,5.25,3.8745765686035156
12-07-1993,5.28125,5.28125,900000,5.34375,5.3125,3.920701742172241
13-07-1993,5.28125,5.3125,100000,5.3125,5.28125,3.8976383209228516
14-07-1993,5.28125,5.28125,538400,5.3125,5.28125,3.8976383209228516
15-07-1993,5.21875,5.3125,338400,5.3125,5.25,3.8745765686035156
16-07-1993,5.234375,5.25,147200,5.265625,5.25,3.8745765686035156
19-07-1993,5.25,5.296875,417600,5.296875,5.28125,3.8976383209228516
20-07-1993,5.25,5.25,713600,5.3125,5.3125,3.920701742172241
21-07-1993,5.3125,5.3125,395200,5.34375,5.3125,3.920701742172241
22-07-1993,5.28125,5.3125,314400,5.3125,5.296875,3.909170150756836
23-07-1993,5.25,5.296875,341600,5.3125,5.3125,3.920701742172241
26-07-1993,5.296875,5.34375,196000,5.34375,5.296875,3.909170150756836
27-07-1993,5.21875,5.265625,191200,5.28125,5.25,3.8745765686035156
28-07-1993,5.234375,5.25,356800,5.296875,5.265625,3.886108160018921
29-07-1993,5.25,5.265625,98400,5.3125,5.296875,3.909170150756836
30-07-1993,5.3125,5.3125,57600,5.328125,5.328125,3.9322330951690674
02-08-1993,5.3125,5.328125,1029600,5.46875,5.46875,4.036015510559082
03-08-1993,5.484375,5.484375,356000,5.578125,5.5625,4.105205059051514
04-08-1993,5.546875,5.546875,400000,5.65625,5.625,4.151333808898926
05-08-1993,5.609375,5.609375,56000,5.640625,5.625,4.151333808898926
06-08-1993,5.578125,5.625,348800,5.625,5.59375,4.128268241882324
09-08-1993,5.609375,5.609375,344800,5.6875,5.6875,4.197456359863281
10-08-1993,5.6875,5.6875,632800,5.75,5.75,4.2435832023620605
11-08-1993,5.78125,5.78125,784800,6.0,6.0,4.428086280822754
12-08-1993,5.984375,6.0,1103200,6.21875,6.015625,4.439620494842529
13-08-1993,5.9375,6.03125,226400,6.03125,5.9375,4.381959915161133
16-08-1993,5.9375,5.9375,448000,5.984375,5.984375,4.4165568351745605
17-08-1993,6.0625,6.0625,640000,6.25,6.25,4.6125898361206055
18-08-1993,6.234375,6.234375,805600,6.484375,6.421875,4.739436626434326
19-08-1993,6.3125,6.4375,424000,6.46875,6.3125,4.658716678619385
20-08-1993,6.3125,6.3125,914400,6.453125,6.453125,4.7624993324279785
23-08-1993,6.453125,6.46875,964800,6.703125,6.703125,4.94700288772583
24-08-1993,6.53125,6.703125,704000,6.703125,6.5625,4.843219757080078
25-08-1993,6.4375,6.5625,753600,6.578125,6.453125,4.7624993324279785
26-08-1993,6.25,6.453125,817600,6.453125,6.296875,4.647184371948242
27-08-1993,6.03125,6.28125,627200,6.28125,6.125,4.520339012145996
30-08-1993,6.109375,6.125,529600,6.25,6.21875,4.5895280838012695
31-08-1993,6.171875,6.234375,888000,6.328125,6.28125,4.635654449462891
01-09-1993,6.28125,6.28125,388800,6.390625,6.375,4.704842567443848
02-09-1993,6.28125,6.375,286400,6.375,6.28125,4.635654449462891
03-09-1993,6.28125,6.28125,135200,6.328125,6.296875,4.647184371948242
07-09-1993,6.125,6.296875,236800,6.328125,6.125,4.520339012145996
08-09-1993,5.953125,6.125,388800,6.125,5.953125,4.39349365234375
09-09-1993,5.921875,5.953125,533600,5.984375,5.96875,4.40502405166626
10-09-1993,5.953125,5.96875,121600,5.984375,5.984375,4.4165568351745605
13-09-1993,5.921875,5.984375,472800,6.03125,5.921875,4.370428085327148
14-09-1993,5.90625,5.953125,633600,5.96875,5.9375,4.381959915161133
15-09-1993,5.921875,5.9375,994400,6.046875,6.0,4.428086280822754
16-09-1993,6.0,6.0,152800,6.03125,6.0,4.428086280822754
17-09-1993,5.890625,5.96875,127200,5.96875,5.9375,4.381959915161133
20-09-1993,5.9375,5.9375,248000,5.96875,5.96875,4.40502405166626
21-09-1993,5.96875,5.96875,218400,6.03125,6.015625,4.439620494842529
22-09-1993,5.96875,6.0,99200,6.03125,5.96875,4.40502405166626
23-09-1993,5.953125,5.984375,232800,5.984375,5.984375,4.4165568351745605
24-09-1993,5.953125,5.96875,357600,6.0,5.96875,4.40502405166626
27-09-1993,5.953125,5.953125,441600,6.0,5.984375,4.4165568351745605
28-09-1993,5.921875,5.984375,326400,5.984375,5.9375,4.381959915161133
29-09-1993,5.9375,5.9375,1200800,6.453125,6.453125,4.7624993324279785
30-09-1993,6.453125,6.453125,755200,6.625,6.625,4.889343738555908
01-10-1993,6.59375,6.59375,599200,6.71875,6.71875,4.958532333374023
04-10-1993,6.640625,6.71875,248000,6.75,6.640625,4.900877952575684
05-10-1993,6.578125,6.65625,122400,6.65625,6.578125,4.854751110076904
06-10-1993,6.5,6.578125,114400,6.578125,6.53125,4.820157527923584
07-10-1993,6.4375,6.5,224000,6.5,6.484375,4.785562515258789
08-10-1993,6.40625,6.484375,245600,6.484375,6.421875,4.744925498962402
11-10-1993,6.25,6.421875,288000,6.421875,6.25,4.617929458618164
12-10-1993,6.125,6.25,272800,6.25,6.125,4.525571346282959
13-10-1993,5.96875,6.078125,826400,6.109375,5.984375,4.421667098999023
14-10-1993,6.0,6.09375,388000,6.125,6.03125,4.456303119659424
15-10-1993,5.828125,6.0,707200,6.0,5.875,4.340856552124023
18-10-1993,5.71875,5.875,719200,5.875,5.75,4.24849796295166
19-10-1993,5.484375,5.75,1467200,5.875,5.828125,4.306221008300781
20-10-1993,5.3125,5.796875,1626400,5.796875,5.3125,3.9252429008483887
21-10-1993,5.4375,5.4375,3216000,5.6875,5.5,4.063780307769775
22-10-1993,5.375,5.5,928800,5.5,5.375,3.971421241760254
25-10-1993,5.28125,5.375,901600,5.421875,5.28125,3.902151346206665
26-10-1993,5.0,5.28125,1536800,5.3125,5.03125,3.717435836791992
27-10-1993,5.0625,5.0625,1416000,5.1875,5.1875,3.8328826427459717
28-10-1993,5.1875,5.1875,1215200,5.453125,5.453125,4.02914571762085
29-10-1993,5.328125,5.421875,412800,5.46875,5.34375,3.948330879211426
01-11-1993,5.34375,5.359375,379200,5.484375,5.453125,4.02914571762085
02-11-1993,5.453125,5.453125,553600,5.578125,5.5625,4.109960079193115
03-11-1993,5.578125,5.609375,540800,5.671875,5.625,4.1561408042907715
04-11-1993,5.625,5.65625,345600,5.734375,5.625,4.1561408042907715
05-11-1993,5.53125,5.625,112800,5.625,5.5625,4.109960079193115
08-11-1993,5.46875,5.5625,207200,5.5625,5.46875,4.040689945220947
09-11-1993,5.1875,5.46875,542400,5.46875,5.21875,3.8559744358062744
10-11-1993,5.21875,5.25,191200,5.28125,5.265625,3.890608310699463
11-11-1993,5.203125,5.28125,564800,5.40625,5.21875,3.8559744358062744
12-11-1993,5.0625,5.203125,1202400,5.203125,5.203125,3.8444290161132812
15-11-1993,5.140625,5.203125,675200,5.234375,5.140625,3.798250913619995
16-11-1993,4.875,4.96875,827200,4.984375,4.9375,3.6481666564941406
17-11-1993,4.9375,5.0,1617600,5.203125,5.203125,3.8444290161132812
18-11-1993,5.15625,5.203125,463200,5.359375,5.296875,3.913698434829712
19-11-1993,5.21875,5.25,85600,5.265625,5.265625,3.890608310699463
22-11-1993,5.078125,5.25,173600,5.25,5.078125,3.7520692348480225
23-11-1993,5.078125,5.109375,697600,5.21875,5.09375,3.7636141777038574
24-11-1993,5.109375,5.109375,556800,5.15625,5.15625,3.8097951412200928
26-11-1993,5.03125,5.125,94400,5.125,5.03125,3.717435836791992
29-11-1993,4.828125,4.96875,1270400,4.96875,4.828125,3.5673532485961914
30-11-1993,4.78125,4.84375,457600,4.859375,4.828125,3.5673532485961914
01-12-1993,4.828125,4.859375,316000,4.921875,4.859375,3.590442180633545
02-12-1993,4.84375,4.84375,429600,4.90625,4.859375,3.590442180633545
03-12-1993,4.875,4.875,142400,4.90625,4.875,3.6019861698150635
06-12-1993,4.84375,4.875,308800,4.90625,4.890625,3.6135311126708984
07-12-1993,4.859375,4.875,528800,4.953125,4.90625,3.625075101852417
08-12-1993,4.84375,4.890625,89600,4.890625,4.859375,3.590442180633545
09-12-1993,4.71875,4.859375,69600,4.859375,4.78125,3.5327200889587402
10-12-1993,4.796875,4.796875,271200,4.84375,4.828125,3.5673532485961914
13-12-1993,4.71875,4.859375,102400,4.859375,4.765625,3.5211730003356934
14-12-1993,4.734375,4.796875,620800,4.8125,4.8125,3.5558080673217773
15-12-1993,4.71875,4.765625,128000,4.765625,4.734375,3.4980852603912354
16-12-1993,4.75,4.75,565600,4.84375,4.78125,3.5327200889587402
17-12-1993,4.734375,4.796875,200800,4.8125,4.75,3.509629249572754
20-12-1993,4.40625,4.71875,927200,4.71875,4.515625,3.336456775665283
21-12-1993,4.265625,4.546875,880000,4.546875,4.4375,3.278731346130371
22-12-1993,4.40625,4.453125,676000,4.75,4.734375,3.4980852603912354
23-12-1993,4.703125,4.703125,176000,4.796875,4.75,3.509629249572754
27-12-1993,4.6875,4.6875,1060000,4.890625,4.859375,3.590442180633545
28-12-1993,4.8125,4.890625,629600,4.921875,4.8125,3.5558080673217773
29-12-1993,4.828125,4.828125,648000,4.890625,4.859375,3.590442180633545
30-12-1993,4.828125,4.84375,270400,4.859375,4.859375,3.590442180633545
31-12-1993,4.828125,4.859375,112800,4.875,4.875,3.6019861698150635
03-01-1994,4.828125,4.875,332000,4.875,4.875,3.6019861698150635
04-01-1994,4.84375,4.84375,202400,4.890625,4.890625,3.6135311126708984
05-01-1994,4.96875,4.96875,800000,5.25,5.203125,3.8444290161132812
06-01-1994,5.234375,5.234375,999200,5.484375,5.453125,4.02914571762085
07-01-1994,5.40625,5.46875,704800,5.46875,5.4375,4.017602443695068
10-01-1994,5.421875,5.421875,573600,5.640625,5.640625,4.173437118530273
11-01-1994,5.453125,5.59375,1028800,5.59375,5.5,4.069392204284668
12-01-1994,5.390625,5.5,296000,5.53125,5.40625,4.000027179718018
13-01-1994,5.3125,5.40625,10779200,5.421875,5.3125,3.9306628704071045
14-01-1994,5.15625,5.28125,1295200,5.328125,5.15625,3.8150577545166016
17-01-1994,5.21875,5.25,1098400,5.3125,5.296875,3.9191043376922607
18-01-1994,5.3125,5.3125,851200,5.4375,5.4375,4.023151874542236
19-01-1994,5.46875,5.46875,1249600,5.609375,5.515625,4.080952167510986
20-01-1994,5.359375,5.515625,487200,5.5625,5.359375,3.965346574783325
21-01-1994,5.34375,5.390625,354400,5.421875,5.375,3.976907253265381
24-01-1994,5.3125,5.390625,408800,5.40625,5.3125,3.9306628704071045
25-01-1994,5.296875,5.3125,284000,5.328125,5.3125,3.9306628704071045
26-01-1994,5.265625,5.3125,873600,5.40625,5.375,3.976907253265381
27-01-1994,5.375,5.375,1322400,5.5625,5.546875,4.104076385498047
28-01-1994,5.484375,5.5,303200,5.515625,5.5,4.069392204284668
31-01-1994,5.515625,5.53125,787200,5.671875,5.515625,4.080952167510986
01-02-1994,5.546875,5.546875,700800,5.625,5.609375,4.150317192077637
02-02-1994,5.578125,5.578125,999200,5.9375,5.765625,4.265927314758301
03-02-1994,5.734375,5.8125,155200,5.8125,5.75,4.254364490509033
04-02-1994,5.703125,5.78125,1171200,5.828125,5.71875,4.231244087219238
07-02-1994,5.609375,5.671875,363200,5.671875,5.625,4.161879539489746
08-02-1994,5.59375,5.625,355200,5.75,5.734375,4.24280309677124
09-02-1994,5.59375,5.734375,272800,5.734375,5.65625,4.185000419616699
10-02-1994,5.5,5.65625,944800,5.65625,5.5,4.069392204284668
11-02-1994,5.5,5.53125,212800,5.71875,5.6875,4.208121299743652
14-02-1994,5.40625,5.6875,335200,5.6875,5.5,4.069392204284668
15-02-1994,5.46875,5.46875,137600,5.53125,5.5,4.069392204284668
16-02-1994,5.375,5.46875,541600,5.484375,5.375,3.976907253265381
17-02-1994,5.34375,5.390625,538400,5.46875,5.34375,3.953784227371216
18-02-1994,5.328125,5.375,437600,5.390625,5.34375,3.953784227371216
22-02-1994,5.359375,5.375,83200,5.40625,5.375,3.976907253265381
23-02-1994,5.34375,5.34375,152000,5.4375,5.421875,4.011589050292969
24-02-1994,5.375,5.421875,108800,5.4375,5.4375,4.023151874542236
25-02-1994,5.46875,5.5,848800,5.5625,5.46875,4.046270847320557
28-02-1994,5.375,5.46875,57600,5.46875,5.375,3.976907253265381
01-03-1994,5.34375,5.40625,180000,5.40625,5.375,3.976907253265381
02-03-1994,5.28125,5.34375,310400,5.34375,5.3125,3.9306628704071045
03-03-1994,5.296875,5.328125,92800,5.34375,5.3125,3.9306628704071045
04-03-1994,5.296875,5.296875,196800,5.40625,5.390625,3.988469123840332
07-03-1994,5.34375,5.40625,268800,5.40625,5.34375,3.953784227371216
08-03-1994,5.234375,5.3125,516800,5.328125,5.234375,3.8728606700897217
09-03-1994,4.96875,5.203125,609600,5.203125,5.03125,3.7225701808929443
10-03-1994,4.921875,5.015625,894400,5.046875,4.9375,3.6532061100006104
11-03-1994,4.921875,4.953125,410400,5.03125,5.015625,3.711007595062256
14-03-1994,5.015625,5.015625,308800,5.1875,5.171875,3.826616048812866
15-03-1994,5.21875,5.21875,446400,5.328125,5.28125,3.907541513442993
16-03-1994,5.25,5.265625,458400,5.296875,5.28125,3.907541513442993
17-03-1994,5.265625,5.265625,423200,5.515625,5.484375,4.057831764221191
18-03-1994,5.5,5.53125,879200,5.6875,5.6875,4.208121299743652
21-03-1994,5.671875,5.71875,813600,5.734375,5.71875,4.231244087219238
22-03-1994,5.6875,5.6875,1078400,5.8125,5.796875,4.289047718048096
23-03-1994,5.625,5.6875,722400,5.6875,5.671875,4.196561813354492
24-03-1994,5.5625,5.59375,674400,5.65625,5.625,4.161879539489746
25-03-1994,5.609375,5.609375,510400,5.671875,5.625,4.161879539489746
28-03-1994,5.4375,5.609375,1590400,5.609375,5.4375,4.023151874542236
29-03-1994,5.25,5.421875,617600,5.421875,5.25,3.8844196796417236
30-03-1994,5.109375,5.234375,567200,5.328125,5.3125,3.9306628704071045
31-03-1994,5.265625,5.3125,148800,5.34375,5.34375,3.953784227371216
04-04-1994,5.25,5.3125,445600,5.3125,5.265625,3.895982265472412
05-04-1994,5.234375,5.28125,940000,5.328125,5.25,3.8844196796417236
06-04-1994,5.21875,5.3125,240000,5.375,5.375,3.976907253265381
07-04-1994,5.34375,5.375,574400,5.4375,5.34375,3.953784227371216
08-04-1994,5.3125,5.328125,169600,5.34375,5.34375,3.953784227371216
11-04-1994,5.265625,5.3125,698400,5.3125,5.296875,3.924612522125244
12-04-1994,5.3125,5.3125,1101600,5.40625,5.375,3.9824962615966797
13-04-1994,5.359375,5.375,604000,5.4375,5.4375,4.028805732727051
14-04-1994,5.359375,5.390625,1280800,5.53125,5.53125,4.098268508911133
15-04-1994,5.46875,5.53125,826400,5.875,5.875,4.352962493896484
18-04-1994,5.6875,5.8125,1331200,5.8125,5.796875,4.295076847076416
19-04-1994,5.734375,5.78125,704000,5.8125,5.734375,4.248765468597412
20-04-1994,5.703125,5.71875,727200,5.71875,5.71875,4.237189769744873
21-04-1994,5.703125,5.703125,480000,5.765625,5.75,4.260344505310059
22-04-1994,5.71875,5.734375,332000,5.796875,5.765625,4.2719221115112305
25-04-1994,5.734375,5.765625,498400,5.9375,5.9375,4.399269104003906
26-04-1994,5.9375,5.9375,1096000,5.96875,5.96875,4.422423839569092
28-04-1994,5.9375,5.953125,856800,6.015625,5.953125,4.4108476638793945
29-04-1994,5.890625,5.9375,535200,5.9375,5.9375,4.399269104003906
02-05-1994,5.890625,5.90625,652000,5.953125,5.953125,4.4108476638793945
03-05-1994,5.859375,5.9375,560800,5.9375,5.875,4.352962493896484
04-05-1994,5.875,5.875,358400,5.9375,5.9375,4.399269104003906
05-05-1994,5.921875,5.96875,66400,5.96875,5.921875,4.387691497802734
06-05-1994,5.921875,5.921875,343200,6.125,6.09375,4.51503849029541
09-05-1994,6.03125,6.109375,453600,6.109375,6.078125,4.503463268280029
10-05-1994,6.09375,6.140625,632800,6.140625,6.09375,4.51503849029541
11-05-1994,6.03125,6.09375,187200,6.109375,6.03125,4.46873140335083
12-05-1994,6.03125,6.046875,806400,6.15625,6.140625,4.549770832061768
13-05-1994,6.109375,6.109375,257600,6.125,6.125,4.5381927490234375
16-05-1994,6.109375,6.140625,293600,6.140625,6.109375,4.526618003845215
17-05-1994,5.890625,6.09375,1044000,6.09375,5.953125,4.4108476638793945
18-05-1994,5.90625,5.96875,1417600,5.984375,5.96875,4.422423839569092
19-05-1994,5.890625,5.984375,205600,5.984375,5.890625,4.364538192749023
20-05-1994,5.8125,5.90625,309600,5.90625,5.828125,4.318230152130127
23-05-1994,5.765625,5.796875,208800,5.8125,5.765625,4.2719221115112305
24-05-1994,5.703125,5.75,287200,5.75,5.703125,4.225613117218018
25-05-1994,5.65625,5.71875,179200,5.71875,5.65625,4.190883159637451
26-05-1994,5.515625,5.59375,840800,5.625,5.546875,4.109844207763672
27-05-1994,5.53125,5.5625,70400,5.59375,5.578125,4.132997035980225
31-05-1994,5.5,5.546875,752800,5.578125,5.5,4.075112342834473
01-06-1994,5.5,5.5,480800,5.546875,5.515625,4.086688041687012
02-06-1994,5.46875,5.5,600000,5.53125,5.46875,4.0519561767578125
03-06-1994,5.34375,5.453125,136800,5.453125,5.421875,4.017226219177246
06-06-1994,5.453125,5.5,132800,5.5,5.46875,4.0519561767578125
07-06-1994,5.46875,5.46875,863200,5.578125,5.5625,4.121420383453369
08-06-1994,5.4375,5.5625,276800,5.5625,5.46875,4.0519561767578125
09-06-1994,5.375,5.4375,304800,5.4375,5.375,3.9824962615966797
10-06-1994,5.375,5.375,165600,5.578125,5.578125,4.132997035980225
13-06-1994,5.578125,5.578125,736800,5.703125,5.6875,4.214036464691162
14-06-1994,5.703125,5.703125,476000,5.75,5.75,4.260344505310059
15-06-1994,5.71875,5.75,292000,5.78125,5.734375,4.248765468597412
16-06-1994,5.71875,5.71875,132000,5.78125,5.78125,4.283495903015137
17-06-1994,5.75,5.75,384000,5.90625,5.90625,4.376115798950195
20-06-1994,5.75,5.9375,174800,5.9375,5.84375,4.329805850982666
21-06-1994,5.78125,5.78125,166400,5.90625,5.90625,4.376115798950195
22-06-1994,5.875,5.96875,52800,5.96875,5.90625,4.376115798950195
23-06-1994,5.75,5.96875,197200,5.96875,5.75,4.260344505310059
24-06-1994,5.59375,5.75,143200,5.75,5.71875,4.237189769744873
27-06-1994,5.625,5.6875,136800,5.75,5.71875,4.237189769744873
28-06-1994,5.59375,5.65625,190800,5.71875,5.71875,4.237189769744873
29-06-1994,5.65625,5.71875,94800,5.75,5.75,4.260344505310059
30-06-1994,5.59375,5.6875,440400,5.75,5.75,4.260344505310059
01-07-1994,5.625,5.75,150400,5.75,5.65625,4.190883159637451
05-07-1994,5.5,5.6875,72400,5.6875,5.5,4.075112342834473
06-07-1994,5.46875,5.5,182800,5.6875,5.6875,4.214036464691162
07-07-1994,5.59375,5.71875,36000,5.71875,5.59375,4.144571304321289
08-07-1994,5.5,5.5625,24000,5.59375,5.5,4.075112342834473
11-07-1994,5.5,5.53125,51600,5.5625,5.5625,4.127048492431641
12-07-1994,5.5,5.5625,98800,5.59375,5.5625,4.127048492431641
13-07-1994,5.40625,5.59375,277200,5.65625,5.5,4.0806779861450195
14-07-1994,5.4375,5.53125,72800,5.53125,5.4375,4.034305572509766
15-07-1994,5.34375,5.40625,68800,5.40625,5.375,3.9879343509674072
18-07-1994,5.3125,5.4375,261600,5.46875,5.46875,4.057490825653076
19-07-1994,5.375,5.4375,143200,5.4375,5.375,3.9879343509674072
20-07-1994,5.3125,5.40625,31600,5.40625,5.3125,3.9415628910064697
21-07-1994,5.1875,5.1875,230800,5.34375,5.34375,3.964747428894043
22-07-1994,5.1875,5.3125,37600,5.3125,5.21875,3.872006416320801
25-07-1994,5.03125,5.25,187200,5.25,5.03125,3.7328927516937256
26-07-1994,4.9375,5.0625,230000,5.0625,4.96875,3.686520576477051
27-07-1994,4.90625,5.0,551200,5.03125,4.9375,3.6633358001708984
28-07-1994,4.9375,4.9375,342800,5.0,5.0,3.709707260131836
29-07-1994,4.96875,5.0,209600,5.0,4.96875,3.686520576477051
01-08-1994,4.9375,4.9375,620000,5.0,5.0,3.709707260131836
02-08-1994,4.9375,4.96875,216400,5.0,5.0,3.709707260131836
03-08-1994,4.90625,4.96875,430800,5.03125,5.0,3.709707260131836
04-08-1994,4.9375,4.96875,156400,5.0625,5.0,3.709707260131836
05-08-1994,4.78125,4.96875,233200,5.0,4.78125,3.5474085807800293
08-08-1994,4.8125,4.84375,731600,4.90625,4.84375,3.5937790870666504
09-08-1994,4.78125,4.8125,1479200,5.0,5.0,3.709707260131836
10-08-1994,5.03125,5.0625,600000,5.125,5.0625,3.7560768127441406
11-08-1994,4.96875,5.03125,326800,5.09375,4.96875,3.686520576477051
12-08-1994,4.9375,4.96875,558400,5.03125,5.0,3.709707260131836
15-08-1994,4.96875,5.0,71600,5.0625,4.96875,3.686520576477051
16-08-1994,4.9375,5.0,300800,5.0,4.9375,3.6633358001708984
17-08-1994,4.90625,4.9375,148800,5.0,4.96875,3.686520576477051
18-08-1994,4.90625,4.96875,228400,4.96875,4.9375,3.6633358001708984
19-08-1994,4.90625,4.9375,330400,4.953125,4.90625,3.640148401260376
22-08-1994,4.8125,4.9375,137200,4.9375,4.8125,3.5705926418304443
23-08-1994,4.78125,4.875,459200,4.90625,4.84375,3.5937790870666504
24-08-1994,4.875,4.875,956000,5.03125,4.9375,3.6633358001708984
25-08-1994,4.75,4.96875,773200,4.96875,4.78125,3.5474085807800293
26-08-1994,4.65625,4.8125,1071600,4.875,4.8125,3.5705926418304443
29-08-1994,4.625,4.875,1677600,4.875,4.71875,3.501035451889038
30-08-1994,4.6875,4.71875,976800,4.8125,4.8125,3.5705926418304443
31-08-1994,4.75,4.8125,1103600,4.90625,4.8125,3.5705926418304443
01-09-1994,4.78125,4.78125,967600,4.875,4.84375,3.5937790870666504
02-09-1994,4.84375,4.90625,250400,4.9375,4.9375,3.6633358001708984
06-09-1994,4.875,4.90625,397200,5.03125,5.03125,3.7328927516937256
07-09-1994,5.0625,5.0625,1347600,5.25,5.1875,3.8488199710845947
08-09-1994,5.125,5.125,1925200,5.4375,5.4375,4.034305572509766
09-09-1994,5.125,5.375,1384800,5.375,5.125,3.8024511337280273
12-09-1994,5.125,5.1875,572800,5.21875,5.125,3.8024511337280273
13-09-1994,5.125,5.15625,136400,5.1875,5.15625,3.825636863708496
14-09-1994,5.125,5.125,378800,5.25,5.25,3.895190715789795
15-09-1994,5.21875,5.25,1040800,5.3125,5.25,3.895190715789795
16-09-1994,5.25,5.28125,429600,5.375,5.375,3.9879343509674072
19-09-1994,5.25,5.375,374400,5.375,5.25,3.895190715789795
20-09-1994,5.0,5.1875,248400,5.1875,5.125,3.8024511337280273
21-09-1994,4.9375,5.125,303200,5.125,5.0,3.709707260131836
22-09-1994,5.0,5.0625,68000,5.0625,5.0,3.709707260131836
23-09-1994,5.0625,5.0625,456000,5.21875,5.1875,3.8488199710845947
26-09-1994,5.15625,5.15625,168800,5.25,5.25,3.895190715789795
27-09-1994,5.15625,5.21875,271200,5.21875,5.1875,3.8488199710845947
28-09-1994,5.15625,5.1875,45600,5.21875,5.15625,3.825636863708496
29-09-1994,5.125,5.1875,135200,5.1875,5.15625,3.825636863708496
30-09-1994,5.0625,5.1875,63600,5.1875,5.09375,3.7792632579803467
03-10-1994,5.0625,5.09375,100000,5.125,5.0625,3.7560768127441406
04-10-1994,4.96875,5.09375,256800,5.09375,4.96875,3.686520576477051
05-10-1994,4.96875,4.96875,100400,5.03125,5.03125,3.7328927516937256
06-10-1994,5.03125,5.0625,187200,5.125,5.0625,3.7560768127441406
07-10-1994,5.09375,5.09375,220000,5.3125,5.28125,3.924192190170288
10-10-1994,5.28125,5.28125,344000,5.375,5.3125,3.9474122524261475
11-10-1994,5.3125,5.3125,328800,5.375,5.3125,3.9474122524261475
12-10-1994,5.15625,5.25,155600,5.25,5.15625,3.8313112258911133
13-10-1994,5.1875,5.21875,285600,5.28125,5.25,3.9009711742401123
14-10-1994,5.1875,5.25,151200,5.25,5.25,3.9009711742401123
17-10-1994,5.25,5.3125,88000,5.3125,5.25,3.9009711742401123
18-10-1994,5.25,5.25,153200,5.375,5.375,3.9938504695892334
19-10-1994,5.34375,5.34375,236000,5.4375,5.34375,3.970629930496216
20-10-1994,5.21875,5.3125,174000,5.34375,5.25,3.9009711742401123
21-10-1994,5.1875,5.1875,66800,5.25,5.21875,3.8777520656585693
24-10-1994,5.1875,5.25,72800,5.34375,5.3125,3.9474122524261475
25-10-1994,5.1875,5.3125,243200,5.34375,5.25,3.9009711742401123
26-10-1994,5.21875,5.25,512800,5.40625,5.40625,4.01707124710083
27-10-1994,5.375,5.375,1548800,5.625,5.53125,4.109951972961426
28-10-1994,5.46875,5.5,638000,5.6875,5.65625,4.2028326988220215
31-10-1994,5.5,5.625,102000,5.625,5.53125,4.109951972961426
01-11-1994,5.46875,5.53125,71200,5.5625,5.5625,4.133172035217285
02-11-1994,5.4375,5.53125,349600,5.53125,5.46875,4.063510894775391
03-11-1994,5.46875,5.5,54000,5.5625,5.53125,4.109951972961426
04-11-1994,5.46875,5.46875,237600,5.53125,5.46875,4.063510894775391
07-11-1994,5.4375,5.5,145600,5.5,5.4375,4.0402913093566895
08-11-1994,5.375,5.40625,126800,5.4375,5.40625,4.01707124710083
09-11-1994,5.4375,5.4375,328400,5.46875,5.4375,4.0402913093566895
10-11-1994,5.4375,5.4375,60800,5.46875,5.4375,4.0402913093566895
11-11-1994,5.34375,5.4375,80800,5.46875,5.34375,3.970629930496216
14-11-1994,5.21875,5.3125,125600,5.3125,5.25,3.9009711742401123
15-11-1994,5.21875,5.25,166400,5.28125,5.28125,3.924192190170288
16-11-1994,5.15625,5.21875,154800,5.25,5.15625,3.8313112258911133
17-11-1994,4.90625,5.09375,990400,5.09375,4.96875,3.691990613937378
18-11-1994,4.625,4.90625,1564800,4.90625,4.78125,3.552670478820801
21-11-1994,4.71875,4.8125,789600,4.84375,4.75,3.5294501781463623
22-11-1994,4.625,4.6875,559600,4.71875,4.6875,3.4830093383789062
23-11-1994,4.5,4.71875,952400,4.71875,4.59375,3.413348913192749
25-11-1994,4.53125,4.5625,45600,4.59375,4.53125,3.3669090270996094
28-11-1994,4.46875,4.59375,1295600,4.59375,4.53125,3.3669090270996094
29-11-1994,4.46875,4.53125,1277200,4.625,4.59375,3.413348913192749
30-11-1994,4.53125,4.625,410400,4.625,4.53125,3.3669090270996094
01-12-1994,4.5,4.53125,507600,4.65625,4.625,3.43656849861145
02-12-1994,4.625,4.625,588000,4.6875,4.625,3.43656849861145
05-12-1994,4.375,4.59375,1013600,4.65625,4.375,3.2508106231689453
06-12-1994,4.375,4.375,664400,4.4375,4.375,3.2508106231689453
07-12-1994,4.34375,4.375,218400,4.5625,4.5625,3.3901290893554688
08-12-1994,4.53125,4.53125,552800,4.8125,4.6875,3.4830093383789062
09-12-1994,4.5625,4.625,588400,4.625,4.59375,3.413348913192749
12-12-1994,4.625,4.625,519200,4.6875,4.65625,3.4597904682159424
13-12-1994,4.65625,4.65625,408000,4.78125,4.75,3.5294501781463623
14-12-1994,4.78125,4.78125,529200,4.96875,4.9375,3.668771505355835
15-12-1994,4.8125,4.96875,116000,4.96875,4.84375,3.599111318588257
16-12-1994,4.8125,4.84375,312800,4.875,4.84375,3.599111318588257
19-12-1994,4.75,4.84375,426800,4.84375,4.8125,3.5758907794952393
20-12-1994,4.625,4.75,305200,4.8125,4.65625,3.4597904682159424
21-12-1994,4.59375,4.6875,634400,4.6875,4.625,3.43656849861145
22-12-1994,4.53125,4.65625,284000,4.65625,4.53125,3.3669090270996094
23-12-1994,4.53125,4.5625,29600,4.59375,4.5625,3.3901290893554688
27-12-1994,4.4375,4.59375,209600,4.59375,4.5,3.3436896800994873
28-12-1994,4.5,4.5,228800,4.59375,4.59375,3.413348913192749
29-12-1994,4.65625,4.65625,221200,4.8125,4.71875,3.506230354309082
30-12-1994,4.6875,4.71875,150400,4.78125,4.6875,3.4830093383789062
03-01-1995,4.65625,4.75,129600,4.78125,4.75,3.5294501781463623
04-01-1995,4.6875,4.75,68400,4.8125,4.71875,3.506230354309082
05-01-1995,4.59375,4.65625,260000,4.6875,4.65625,3.4597904682159424
06-01-1995,4.5,4.6875,404800,4.6875,4.5625,3.3901290893554688
09-01-1995,4.46875,4.53125,613600,4.5625,4.46875,3.325937032699585
10-01-1995,4.3125,4.4375,289600,4.4375,4.3125,3.209644079208374
11-01-1995,4.3125,4.3125,124800,4.40625,4.40625,3.2794201374053955
12-01-1995,4.3125,4.375,374400,4.4375,4.3125,3.209644079208374
13-01-1995,4.28125,4.3125,66800,4.40625,4.375,3.256164073944092
16-01-1995,4.28125,4.3125,480800,4.328125,4.3125,3.209644079208374
17-01-1995,4.3125,4.3125,437600,4.4375,4.40625,3.2794201374053955
18-01-1995,4.40625,4.40625,606000,4.59375,4.5625,3.395711660385132
19-01-1995,4.5,4.5625,248000,4.5625,4.5,3.3491950035095215
20-01-1995,4.5,4.53125,76400,4.53125,4.53125,3.372453212738037
23-01-1995,4.375,4.46875,128800,4.5,4.375,3.256164073944092
24-01-1995,4.375,4.375,345600,4.5625,4.53125,3.372453212738037
25-01-1995,4.46875,4.53125,129600,4.53125,4.5,3.3491950035095215
26-01-1995,4.5,4.5,145200,4.625,4.625,3.4422271251678467
27-01-1995,4.5,4.5625,512000,4.59375,4.53125,3.372453212738037
30-01-1995,4.4375,4.53125,193200,4.53125,4.46875,3.325937032699585
31-01-1995,4.4375,4.4375,186400,4.53125,4.4375,3.302678108215332
01-02-1995,4.4375,4.4375,46000,4.5,4.46875,3.325937032699585
02-02-1995,4.4375,4.46875,41600,4.5,4.46875,3.325937032699585
03-02-1995,4.4375,4.5,243600,4.53125,4.5,3.3491950035095215
06-02-1995,4.5625,4.625,651200,4.8125,4.75,3.5352623462677
07-02-1995,4.6875,4.8125,437200,4.8125,4.6875,3.4887442588806152
08-02-1995,4.71875,4.71875,549600,4.8125,4.75,3.5352623462677
09-02-1995,4.6875,4.78125,278800,4.78125,4.6875,3.4887442588806152
10-02-1995,4.6875,4.71875,243600,4.78125,4.78125,3.558520555496216
13-02-1995,4.8125,4.8125,264800,4.90625,4.84375,3.605037212371826
14-02-1995,4.75,4.84375,137600,4.84375,4.84375,3.605037212371826
15-02-1995,4.8125,4.84375,277200,4.96875,4.9375,3.6748125553131104
16-02-1995,4.9375,4.9375,477600,5.03125,5.0,3.7213294506073
17-02-1995,5.0,5.0,261200,5.125,5.125,3.814362049102783
21-02-1995,5.09375,5.125,92400,5.125,5.125,3.814362049102783
22-02-1995,5.0625,5.09375,214400,5.125,5.09375,3.7911014556884766
23-02-1995,5.0625,5.125,348800,5.15625,5.15625,3.8376197814941406
24-02-1995,5.09375,5.15625,281200,5.15625,5.125,3.814362049102783
27-02-1995,5.09375,5.125,381600,5.15625,5.15625,3.8376197814941406
28-02-1995,5.15625,5.1875,322400,5.21875,5.21875,3.8841371536254883
01-03-1995,5.15625,5.1875,70800,5.1875,5.15625,3.8376197814941406
02-03-1995,5.15625,5.15625,218800,5.25,5.25,3.9073925018310547
03-03-1995,5.21875,5.25,259600,5.28125,5.25,3.9073925018310547
06-03-1995,5.15625,5.25,236400,5.25,5.21875,3.8841371536254883
07-03-1995,5.125,5.25,405200,5.25,5.125,3.814362049102783
08-03-1995,5.125,5.15625,442800,5.28125,5.21875,3.8841371536254883
09-03-1995,5.1875,5.25,179600,5.28125,5.28125,3.9306530952453613
10-03-1995,5.15625,5.25,170400,5.25,5.15625,3.8376197814941406
13-03-1995,5.15625,5.1875,100800,5.21875,5.1875,3.8608758449554443
14-03-1995,5.1875,5.1875,101600,5.25,5.25,3.9073925018310547
15-03-1995,5.25,5.25,317200,5.34375,5.3125,3.9539132118225098
16-03-1995,5.28125,5.28125,635600,5.5,5.4375,4.046943187713623
17-03-1995,5.3125,5.40625,492800,5.5,5.4375,4.046943187713623
20-03-1995,5.28125,5.40625,426800,5.5,5.34375,3.977167844772339
21-03-1995,5.25,5.3125,159600,5.3125,5.25,3.9073925018310547
22-03-1995,5.28125,5.3125,349200,5.375,5.3125,3.9539132118225098
23-03-1995,5.3125,5.34375,279600,5.4375,5.40625,4.023685932159424
24-03-1995,5.28125,5.40625,696000,5.40625,5.3125,3.9539132118225098
27-03-1995,5.3125,5.34375,314400,5.5,5.5,4.0934600830078125
28-03-1995,5.5,5.5,268800,5.5625,5.5625,4.139977931976318
29-03-1995,5.5625,5.5625,458000,5.6875,5.625,4.186494827270508
30-03-1995,5.65625,5.65625,414400,5.875,5.875,4.372559547424316
31-03-1995,5.90625,5.90625,1336800,6.21875,6.15625,4.581883430480957
03-04-1995,5.96875,6.15625,1253600,6.15625,5.96875,4.442336082458496
04-04-1995,5.84375,5.96875,666000,5.96875,5.875,4.372559547424316
05-04-1995,5.84375,5.875,1044800,5.96875,5.90625,4.395818710327148
06-04-1995,5.71875,5.875,704000,5.875,5.71875,4.256268501281738
07-04-1995,5.625,5.6875,227600,5.75,5.625,4.191991329193115
10-04-1995,5.59375,5.59375,525600,5.75,5.75,4.285148620605469
11-04-1995,5.6875,5.78125,668400,5.78125,5.75,4.285148620605469
12-04-1995,5.71875,5.75,110400,5.78125,5.78125,4.308433532714844
13-04-1995,5.75,5.8125,191600,5.875,5.75,4.285148620605469
17-04-1995,5.75,5.78125,133200,5.8125,5.75,4.285148620605469
18-04-1995,5.5625,5.75,805200,5.75,5.5625,4.145413875579834
19-04-1995,5.53125,5.59375,182400,5.625,5.625,4.191991329193115
20-04-1995,5.625,5.625,356000,5.78125,5.78125,4.308433532714844
21-04-1995,5.8125,5.8125,1894000,6.1875,6.09375,4.541323661804199
24-04-1995,5.9375,6.125,940800,6.1875,5.9375,4.424880027770996
25-04-1995,5.84375,5.875,103200,5.90625,5.84375,4.355014324188232
26-04-1995,5.71875,5.875,144000,5.875,5.78125,4.308433532714844
27-04-1995,5.65625,5.78125,390800,5.78125,5.65625,4.215278148651123
28-04-1995,5.6875,5.71875,266400,5.71875,5.71875,4.261856555938721
01-05-1995,5.71875,5.75,529200,5.78125,5.75,4.285148620605469
02-05-1995,5.6875,5.75,406400,5.75,5.75,4.285148620605469
03-05-1995,5.75,5.75,199600,5.8125,5.75,4.285148620605469
04-05-1995,5.6875,5.75,215200,5.75,5.71875,4.261856555938721
05-05-1995,5.65625,5.6875,289200,5.75,5.65625,4.215278148651123
08-05-1995,5.625,5.65625,224000,5.6875,5.65625,4.215278148651123
09-05-1995,5.625,5.65625,509200,5.8125,5.8125,4.33172607421875
10-05-1995,5.78125,5.78125,706400,5.9375,5.9375,4.424880027770996
11-05-1995,5.78125,5.90625,222000,5.90625,5.8125,4.33172607421875
12-05-1995,5.75,5.8125,38800,5.8125,5.78125,4.308433532714844
15-05-1995,5.78125,5.8125,279600,5.875,5.875,4.378302574157715
16-05-1995,5.84375,5.90625,43200,5.9375,5.84375,4.355014324188232
17-05-1995,5.78125,5.84375,295600,5.84375,5.8125,4.33172607421875
18-05-1995,5.65625,5.8125,107600,5.8125,5.71875,4.261856555938721
19-05-1995,5.71875,5.71875,130800,5.75,5.75,4.285148620605469
22-05-1995,5.6875,5.75,64000,5.75,5.6875,4.238567352294922
23-05-1995,5.71875,5.71875,340800,5.90625,5.875,4.378302574157715
24-05-1995,5.84375,5.875,449200,6.09375,6.09375,4.541323661804199
25-05-1995,6.0,6.03125,798400,6.125,6.0625,4.518036842346191
26-05-1995,5.9375,6.0625,177600,6.0625,5.96875,4.44816780090332
30-05-1995,5.9375,5.9375,303600,6.03125,6.03125,4.494744300842285
31-05-1995,6.0,6.0625,254800,6.0625,6.0625,4.518036842346191
01-06-1995,6.03125,6.0625,26000,6.09375,6.03125,4.494744300842285
02-06-1995,5.9375,6.0625,201600,6.09375,5.96875,4.44816780090332
05-06-1995,5.96875,6.0,137600,6.0,6.0,4.471457004547119
06-06-1995,5.875,6.0,53200,6.0,5.90625,4.401591777801514
07-06-1995,5.8125,5.9375,307600,5.9375,5.8125,4.33172607421875
08-06-1995,5.75,5.8125,242000,5.8125,5.78125,4.308433532714844
09-06-1995,5.75,5.78125,652000,5.8125,5.78125,4.308433532714844
12-06-1995,5.71875,5.78125,188000,5.78125,5.75,4.285148620605469
13-06-1995,5.6875,5.6875,119200,5.71875,5.71875,4.261856555938721
14-06-1995,5.71875,5.78125,300400,5.78125,5.78125,4.308433532714844
15-06-1995,5.71875,5.75,186800,5.8125,5.8125,4.33172607421875
16-06-1995,5.6875,5.8125,190000,5.8125,5.6875,4.238567352294922
19-06-1995,5.59375,5.65625,399600,5.71875,5.6875,4.238567352294922
20-06-1995,5.34375,5.71875,788000,5.71875,5.34375,3.9823944568634033
21-06-1995,5.1875,5.34375,494400,5.34375,5.21875,3.8892359733581543
22-06-1995,5.0625,5.21875,762800,5.21875,5.15625,3.8426601886749268
23-06-1995,5.1875,5.1875,2558400,5.34375,5.3125,3.9591026306152344
26-06-1995,5.25,5.28125,352400,5.375,5.34375,3.9823944568634033
27-06-1995,5.3125,5.3125,496800,5.4375,5.40625,4.028968334197998
28-06-1995,5.21875,5.375,1011200,5.375,5.25,3.912524461746216
29-06-1995,5.1875,5.25,250400,5.25,5.1875,3.8659448623657227
30-06-1995,5.21875,5.21875,653600,5.4375,5.4375,4.052258491516113
03-07-1995,5.34375,5.40625,317600,5.46875,5.46875,4.075545310974121
05-07-1995,5.28125,5.4375,124000,5.4375,5.28125,3.9358129501342773
06-07-1995,5.21875,5.25,680800,5.28125,5.25,3.912524461746216
07-07-1995,5.21875,5.25,272400,5.25,5.25,3.912524461746216
10-07-1995,5.125,5.28125,638400,5.3125,5.125,3.81937313079834
11-07-1995,5.0,5.125,582000,5.28125,5.15625,3.8426601886749268
12-07-1995,5.1875,5.1875,335600,5.28125,5.25,3.9182238578796387
13-07-1995,5.21875,5.375,817600,5.4375,5.21875,3.8949005603790283
14-07-1995,5.15625,5.25,286000,5.28125,5.1875,3.8715763092041016
17-07-1995,5.15625,5.1875,460400,5.25,5.21875,3.8949005603790283
18-07-1995,5.21875,5.21875,77600,5.28125,5.28125,3.9415454864501953
19-07-1995,5.1875,5.25,132000,5.28125,5.25,3.9182238578796387
20-07-1995,5.25,5.25,379200,5.375,5.28125,3.9415454864501953
21-07-1995,5.21875,5.28125,248000,5.375,5.34375,3.9881935119628906
24-07-1995,5.3125,5.3125,176400,5.40625,5.375,4.011514186859131
25-07-1995,5.40625,5.40625,344000,5.46875,5.4375,4.058160305023193
26-07-1995,5.34375,5.40625,244000,5.40625,5.34375,3.9881935119628906
27-07-1995,5.21875,5.28125,758000,5.375,5.28125,3.9415454864501953
28-07-1995,5.25,5.3125,111600,5.375,5.375,4.011514186859131
31-07-1995,5.34375,5.34375,217200,5.4375,5.40625,4.0348358154296875
01-08-1995,5.1875,5.375,532800,5.375,5.21875,3.8949005603790283
02-08-1995,5.1875,5.21875,302000,5.25,5.21875,3.8949005603790283
03-08-1995,5.125,5.1875,552400,5.34375,5.34375,3.9881935119628906
04-08-1995,5.28125,5.34375,558800,5.34375,5.34375,3.9881935119628906
07-08-1995,5.34375,5.375,101600,5.40625,5.375,4.011514186859131
08-08-1995,5.34375,5.40625,305200,5.4375,5.34375,3.9881935119628906
09-08-1995,5.3125,5.40625,703200,5.40625,5.3125,3.964869737625122
10-08-1995,5.1875,5.3125,166000,5.34375,5.1875,3.8715763092041016
11-08-1995,5.15625,5.15625,349600,5.3125,5.3125,3.964869737625122
14-08-1995,5.25,5.34375,134400,5.34375,5.25,3.9182238578796387
15-08-1995,5.25,5.3125,108800,5.34375,5.25,3.9182238578796387
16-08-1995,5.125,5.21875,242000,5.21875,5.21875,3.8949005603790283
17-08-1995,5.1875,5.1875,371600,5.3125,5.28125,3.9415454864501953
18-08-1995,5.28125,5.28125,542400,5.5,5.40625,4.0348358154296875
21-08-1995,5.40625,5.46875,575600,5.5,5.40625,4.0348358154296875
22-08-1995,5.4375,5.4375,362400,5.53125,5.53125,4.128129959106445
23-08-1995,5.5625,5.5625,317600,5.71875,5.625,4.1980977058410645
24-08-1995,5.46875,5.59375,2007200,5.625,5.5,4.104809761047363
25-08-1995,5.5,5.5,160000,5.53125,5.5,4.104809761047363
28-08-1995,5.46875,5.5,280000,5.5625,5.53125,4.128129959106445
29-08-1995,5.5,5.53125,56400,5.5625,5.53125,4.128129959106445
30-08-1995,5.625,5.625,290400,5.65625,5.65625,4.221419334411621
31-08-1995,5.6875,5.6875,116800,5.84375,5.8125,4.338033676147461
01-09-1995,5.84375,5.84375,431200,5.96875,5.96875,4.454649448394775
05-09-1995,5.90625,5.96875,545200,6.03125,6.03125,4.501291751861572
06-09-1995,5.90625,5.96875,415600,6.0,6.0,4.477970600128174
07-09-1995,5.78125,6.0,284000,6.03125,6.03125,4.501291751861572
08-09-1995,5.9375,6.03125,248000,6.09375,5.9375,4.4313249588012695
11-09-1995,5.9375,5.96875,230800,6.03125,6.03125,4.501291751861572
12-09-1995,5.90625,6.0,312400,6.15625,6.15625,4.594583511352539
13-09-1995,6.03125,6.125,547600,6.125,6.0625,4.524616241455078
14-09-1995,5.9375,6.03125,348000,6.09375,6.09375,4.547939777374268
15-09-1995,6.0625,6.0625,221200,6.1875,6.1875,4.6179070472717285
18-09-1995,6.125,6.15625,490000,6.34375,6.21875,4.641229629516602
19-09-1995,6.0,6.15625,504800,6.1875,6.15625,4.594583511352539
20-09-1995,6.0,6.125,284800,6.125,6.0,4.477970600128174
21-09-1995,5.9375,6.0625,451200,6.0625,6.03125,4.501291751861572
22-09-1995,5.78125,6.03125,143600,6.03125,5.875,4.38468074798584
25-09-1995,5.75,5.84375,183200,5.84375,5.78125,4.314709186553955
26-09-1995,5.65625,5.78125,232000,5.78125,5.65625,4.221419334411621
27-09-1995,5.625,5.6875,229200,5.75,5.75,4.2913899421691895
28-09-1995,5.625,5.8125,263600,5.96875,5.625,4.1980977058410645
29-09-1995,5.4375,5.59375,635600,5.59375,5.4375,4.058160305023193
02-10-1995,5.4375,5.46875,548400,5.6875,5.59375,4.174773693084717
03-10-1995,5.5625,5.5625,304400,5.6875,5.65625,4.221419334411621
04-10-1995,5.5625,5.625,230800,5.65625,5.65625,4.221419334411621
05-10-1995,5.5,5.625,76800,5.625,5.53125,4.128129959106445
06-10-1995,5.5,5.5,259200,5.5625,5.5625,4.151452541351318
09-10-1995,5.5,5.59375,48000,5.59375,5.5,4.104809761047363
10-10-1995,5.375,5.46875,109600,5.46875,5.375,4.011514186859131
11-10-1995,5.34375,5.375,166000,5.40625,5.34375,3.9881935119628906
12-10-1995,5.34375,5.375,620000,5.5625,5.5,4.110576629638672
13-10-1995,5.5,5.5,227200,5.59375,5.53125,4.133933067321777
16-10-1995,5.40625,5.53125,188800,5.53125,5.46875,4.087218761444092
17-10-1995,5.40625,5.4375,398400,5.5,5.5,4.110576629638672
18-10-1995,5.25,5.4375,1966400,5.46875,5.25,3.9237282276153564
19-10-1995,5.21875,5.21875,1503600,5.3125,5.21875,3.9003756046295166
20-10-1995,5.125,5.25,333600,5.25,5.125,3.830308198928833
23-10-1995,5.0,5.15625,608000,5.15625,5.0,3.7368860244750977
24-10-1995,4.90625,5.0,1186800,5.0,4.9375,3.6901774406433105
25-10-1995,4.71875,4.9375,658400,4.9375,4.71875,3.526686668395996
26-10-1995,4.6875,4.75,439600,4.8125,4.71875,3.526686668395996
27-10-1995,4.71875,4.71875,352000,4.875,4.875,3.643463134765625
30-10-1995,4.9375,4.9375,646800,5.0,4.96875,3.713531255722046
31-10-1995,4.96875,5.0,314800,5.03125,5.0,3.7368860244750977
01-11-1995,5.0,5.0,390800,5.03125,5.0,3.7368860244750977
02-11-1995,4.9375,4.96875,42800,5.0,4.9375,3.6901774406433105
03-11-1995,4.875,4.875,165600,4.96875,4.96875,3.713531255722046
06-11-1995,4.90625,4.96875,63600,4.96875,4.90625,3.6668195724487305
07-11-1995,4.9375,4.9375,476400,5.03125,5.03125,3.7602431774139404
08-11-1995,4.875,4.96875,907200,5.0,5.0,3.7368860244750977
09-11-1995,5.03125,5.09375,1176400,5.15625,5.03125,3.7602431774139404
10-11-1995,4.90625,5.03125,550000,5.03125,4.90625,3.6668195724487305
13-11-1995,4.9375,4.96875,446800,5.09375,5.09375,3.8069536685943604
14-11-1995,4.9375,5.03125,1045600,5.0625,4.96875,3.713531255722046
15-11-1995,4.96875,4.96875,228000,5.03125,5.0,3.7368860244750977
16-11-1995,5.03125,5.03125,1046400,5.4375,5.375,4.017153263092041
17-11-1995,5.375,5.40625,906800,5.40625,5.40625,4.04050874710083
20-11-1995,5.1875,5.40625,585600,5.40625,5.1875,3.8770203590393066
21-11-1995,5.1875,5.21875,363200,5.375,5.34375,3.993797540664673
22-11-1995,5.34375,5.375,432800,5.40625,5.40625,4.04050874710083
24-11-1995,5.3125,5.40625,229200,5.40625,5.3125,3.9704434871673584
27-11-1995,5.125,5.21875,851200,5.21875,5.1875,3.8770203590393066
28-11-1995,5.1875,5.1875,315200,5.28125,5.25,3.9237282276153564
29-11-1995,5.21875,5.28125,28800,5.28125,5.21875,3.9003756046295166
30-11-1995,5.1875,5.28125,311200,5.28125,5.25,3.9237282276153564
01-12-1995,5.25,5.25,308400,5.34375,5.28125,3.947084665298462
04-12-1995,5.125,5.3125,1056000,5.3125,5.3125,3.9704434871673584
05-12-1995,5.3125,5.3125,461200,5.375,5.375,4.017153263092041
06-12-1995,5.40625,5.40625,685200,5.4375,5.4375,4.063865661621094
07-12-1995,5.4375,5.4375,720400,5.5,5.5,4.110576629638672
08-12-1995,5.4375,5.46875,18838800,5.65625,5.65625,4.227354049682617
11-12-1995,5.71875,5.8125,5631200,5.875,5.875,4.390841960906982
12-12-1995,5.8125,5.875,2874000,5.90625,5.875,4.390841960906982
13-12-1995,5.84375,5.875,3176800,6.09375,6.0,4.4842634201049805
14-12-1995,5.90625,6.03125,2280000,6.09375,5.90625,4.414198398590088
15-12-1995,5.875,6.1875,1721200,6.21875,6.0,4.4842634201049805
18-12-1995,5.8125,5.9375,974000,5.96875,5.96875,4.460908889770508
19-12-1995,5.875,5.96875,876000,6.0625,6.0625,4.530972957611084
20-12-1995,6.03125,6.0625,2001200,6.21875,6.03125,4.507620811462402
21-12-1995,6.0,6.03125,1896800,6.125,6.03125,4.507620811462402
22-12-1995,5.9375,6.09375,1115600,6.15625,6.03125,4.507620811462402
26-12-1995,6.03125,6.09375,490800,6.09375,6.03125,4.507620811462402
27-12-1995,5.9375,6.03125,582000,6.03125,5.9375,4.437553882598877
28-12-1995,5.90625,5.90625,1150800,6.15625,6.15625,4.601040363311768
29-12-1995,5.9375,6.1875,677200,6.1875,6.0,4.4842634201049805
02-01-1996,6.03125,6.0625,579600,6.125,6.09375,4.554332256317139
03-01-1996,5.875,6.125,1148000,6.125,5.96875,4.460908889770508
04-01-1996,5.9375,5.96875,1644000,6.0625,5.96875,4.460908889770508
05-01-1996,5.9375,5.9375,680800,6.09375,6.0625,4.530972957611084
08-01-1996,6.0625,6.0625,779200,6.125,6.125,4.577685356140137
09-01-1996,5.9375,6.15625,948400,6.15625,6.0,4.4842634201049805
10-01-1996,5.84375,6.0,516400,6.03125,5.96875,4.460908889770508
11-01-1996,5.6875,5.8125,1618400,5.8125,5.78125,4.326212406158447
12-01-1996,5.75,5.75,555200,5.8125,5.8125,4.349599838256836
15-01-1996,5.75,5.875,1159200,5.875,5.75,4.302826404571533
16-01-1996,5.71875,5.75,1683200,5.8125,5.75,4.302826404571533
17-01-1996,5.59375,5.75,2281600,5.78125,5.75,4.302826404571533
18-01-1996,5.71875,5.75,504000,5.78125,5.78125,4.326212406158447
19-01-1996,5.75,5.8125,803200,5.84375,5.75,4.302826404571533
22-01-1996,5.78125,5.78125,545600,5.875,5.875,4.396364688873291
23-01-1996,5.78125,5.84375,426400,5.90625,5.78125,4.326212406158447
24-01-1996,5.78125,5.8125,539600,5.96875,5.875,4.396364688873291
25-01-1996,5.875,5.875,693600,5.96875,5.9375,4.443136215209961
26-01-1996,5.875,5.90625,1880000,5.90625,5.875,4.396364688873291
29-01-1996,5.875,5.90625,1636800,6.0,6.0,4.489907264709473
30-01-1996,5.96875,6.0,970800,6.03125,6.03125,4.5132904052734375
31-01-1996,5.96875,6.03125,650000,6.125,6.09375,4.560060501098633
01-02-1996,6.125,6.125,2182400,6.3125,6.21875,4.65360164642334
02-02-1996,6.125,6.15625,1204000,6.25,6.15625,4.606827735900879
05-02-1996,6.0625,6.09375,923200,6.15625,6.09375,4.560060501098633
06-02-1996,6.03125,6.09375,938400,6.125,6.03125,4.5132904052734375
07-02-1996,6.0625,6.09375,838800,6.15625,6.125,4.5834455490112305
08-02-1996,6.125,6.125,705600,6.25,6.1875,4.630212783813477
09-02-1996,6.125,6.1875,1770400,6.28125,6.25,4.676987171173096
12-02-1996,6.15625,6.25,4923200,6.65625,6.53125,4.887448787689209
13-02-1996,6.25,6.59375,3442800,6.59375,6.34375,4.747141361236572
14-02-1996,6.375,6.375,1570000,6.625,6.5625,4.910834789276123
15-02-1996,6.53125,6.53125,1637600,6.9375,6.90625,5.1680707931518555
16-02-1996,6.65625,7.125,2182000,7.125,6.75,5.051146030426025
20-02-1996,6.5625,6.625,421200,6.71875,6.625,4.957603931427002
21-02-1996,6.53125,6.5625,1553600,6.71875,6.71875,5.02775764465332
22-02-1996,6.59375,6.6875,1300800,6.75,6.6875,5.004375457763672
23-02-1996,6.5625,6.65625,660000,6.75,6.71875,5.02775764465332
26-02-1996,6.5625,6.625,556400,6.65625,6.59375,4.934218406677246
27-02-1996,6.5,6.53125,532800,6.625,6.59375,4.934218406677246
28-02-1996,6.40625,6.59375,2225600,6.71875,6.40625,4.793910026550293
29-02-1996,6.1875,6.4375,956000,6.4375,6.25,4.676987171173096
01-03-1996,6.25,6.25,402800,6.34375,6.25,4.676987171173096
04-03-1996,6.1875,6.25,809200,6.34375,6.3125,4.723753452301025
05-03-1996,6.15625,6.25,574000,6.25,6.25,4.676987171173096
06-03-1996,6.1875,6.21875,830000,6.40625,6.40625,4.793910026550293
07-03-1996,6.3125,6.375,1132000,6.40625,6.375,4.770524501800537
08-03-1996,6.1875,6.1875,278400,6.28125,6.21875,4.65360164642334
11-03-1996,6.09375,6.1875,1366400,6.1875,6.15625,4.606827735900879
12-03-1996,6.09375,6.125,1108400,6.15625,6.125,4.5834455490112305
13-03-1996,6.125,6.125,1038800,6.1875,6.1875,4.630212783813477
14-03-1996,6.25,6.25,2724800,6.40625,6.3125,4.723753452301025
15-03-1996,6.0,6.25,1051600,6.25,6.0625,4.536676406860352
18-03-1996,6.0625,6.09375,4547200,6.375,6.375,4.770524501800537
19-03-1996,6.34375,6.375,473600,6.4375,6.34375,4.747141361236572
20-03-1996,6.1875,6.375,223600,6.375,6.1875,4.630212783813477
21-03-1996,6.125,6.1875,936800,6.28125,6.125,4.5834455490112305
22-03-1996,6.09375,6.15625,1019600,6.1875,6.09375,4.560060501098633
25-03-1996,6.0625,6.0625,907200,6.28125,6.28125,4.700369358062744
26-03-1996,6.25,6.28125,216800,6.3125,6.3125,4.723753452301025
27-03-1996,6.40625,6.5,1842000,6.59375,6.53125,4.887448787689209
28-03-1996,6.53125,6.53125,1270000,6.65625,6.65625,4.980990886688232
29-03-1996,6.5625,6.59375,1343600,6.625,6.59375,4.934218406677246
01-04-1996,6.5625,6.59375,752800,6.6875,6.6875,5.004375457763672
02-04-1996,6.65625,6.71875,1116400,6.875,6.84375,5.121299743652344
03-04-1996,6.71875,6.78125,1519600,6.96875,6.9375,5.1914567947387695
04-04-1996,6.75,6.9375,796800,6.9375,6.875,5.144683837890625
08-04-1996,6.625,6.84375,1262800,6.84375,6.8125,5.097915172576904
09-04-1996,6.8125,6.8125,923200,6.90625,6.875,5.144683837890625
10-04-1996,6.78125,6.8125,1358000,6.96875,6.9375,5.1914567947387695
11-04-1996,6.84375,6.875,932000,6.9375,6.875,5.150254249572754
12-04-1996,6.59375,6.875,1120000,6.875,6.65625,4.986380100250244
15-04-1996,6.5625,6.59375,948000,6.78125,6.75,5.056612491607666
16-04-1996,6.6875,6.78125,846000,6.78125,6.75,5.056612491607666
17-04-1996,6.65625,6.75,1494800,6.75,6.6875,5.009789943695068
18-04-1996,6.5,6.6875,1113200,6.6875,6.53125,4.892736911773682
19-04-1996,6.5,6.5,884400,6.6875,6.65625,4.986380100250244
22-04-1996,6.65625,6.65625,2457600,6.90625,6.8125,5.10343074798584
23-04-1996,6.78125,6.9375,1053200,7.0,6.90625,5.1736626625061035
24-04-1996,6.90625,6.90625,1069200,7.15625,7.03125,5.267302513122559
25-04-1996,6.9375,6.96875,536800,7.0,6.9375,5.197074890136719
26-04-1996,6.78125,6.875,486400,6.9375,6.78125,5.080020904541016
29-04-1996,6.71875,6.71875,705200,6.875,6.78125,5.080020904541016
30-04-1996,6.59375,6.8125,779600,6.875,6.625,4.96297025680542
01-05-1996,6.5,6.625,808400,6.75,6.5,4.869328498840332
02-05-1996,6.46875,6.5625,373600,6.59375,6.5625,4.916149616241455
03-05-1996,6.53125,6.625,680000,6.625,6.625,4.96297025680542
06-05-1996,6.5625,6.59375,504400,6.65625,6.5625,4.916149616241455
07-05-1996,6.125,6.625,1395600,6.65625,6.21875,4.6586384773254395
08-05-1996,6.1875,6.25,620400,6.34375,6.25,4.682047367095947
09-05-1996,6.25,6.25,332000,6.375,6.375,4.7756876945495605
10-05-1996,6.25,6.375,818400,6.40625,6.3125,4.7288665771484375
13-05-1996,6.21875,6.25,796000,6.3125,6.25,4.682047367095947
14-05-1996,6.15625,6.25,1208800,6.28125,6.15625,4.611814022064209
15-05-1996,6.09375,6.1875,2372400,6.3125,6.3125,4.7288665771484375
16-05-1996,6.25,6.34375,379600,6.34375,6.28125,4.705456256866455
17-05-1996,6.1875,6.25,1017600,6.28125,6.25,4.682047367095947
20-05-1996,6.25,6.25,425600,6.375,6.34375,4.7522783279418945
21-05-1996,6.3125,6.3125,2660400,6.46875,6.4375,4.822510719299316
22-05-1996,6.4375,6.4375,552000,6.5,6.5,4.869328498840332
23-05-1996,6.53125,6.5625,1154800,6.75,6.5625,4.916149616241455
24-05-1996,6.4375,6.5,1701200,6.53125,6.5,4.869328498840332
28-05-1996,6.359375,6.53125,554000,6.53125,6.4375,4.822510719299316
29-05-1996,6.3125,6.40625,613600,6.40625,6.375,4.7756876945495605
30-05-1996,6.25,6.375,604000,6.375,6.3125,4.7288665771484375
31-05-1996,6.25,6.34375,493200,6.375,6.3125,4.7288665771484375
03-06-1996,6.28125,6.3125,211200,6.3125,6.3125,4.7288665771484375
04-06-1996,6.375,6.40625,654800,6.46875,6.375,4.7756876945495605
05-06-1996,6.40625,6.4375,679600,6.46875,6.4375,4.822510719299316
06-06-1996,6.25,6.4375,278800,6.4375,6.28125,4.705456256866455
07-06-1996,6.15625,6.21875,702800,6.34375,6.34375,4.7522783279418945
10-06-1996,6.3125,6.34375,241200,6.34375,6.3125,4.7288665771484375
11-06-1996,6.28125,6.3125,761600,6.375,6.3125,4.7288665771484375
12-06-1996,6.25,6.3125,1385200,6.3125,6.28125,4.705456256866455
13-06-1996,6.09375,6.28125,985600,6.28125,6.1875,4.635224342346191
14-06-1996,6.15625,6.1875,1093200,6.21875,6.15625,4.611814022064209
17-06-1996,6.0625,6.09375,586400,6.125,6.0625,4.541586875915527
18-06-1996,5.96875,6.0,1450000,6.125,5.96875,4.47135591506958
19-06-1996,6.03125,6.03125,1416800,6.15625,6.0625,4.541586875915527
20-06-1996,6.0625,6.09375,1258400,6.125,6.09375,4.564994812011719
21-06-1996,6.0,6.09375,650800,6.09375,6.0,4.494766712188721
24-06-1996,5.96875,6.03125,948000,6.0625,6.0,4.494766712188721
25-06-1996,5.96875,6.03125,2754000,6.25,6.15625,4.611814022064209
26-06-1996,6.21875,6.21875,5256400,6.625,6.625,4.96297025680542
27-06-1996,6.53125,6.59375,4884000,6.75,6.75,5.056612491607666
28-06-1996,6.78125,6.8125,5409200,6.96875,6.96875,5.22048282623291
01-07-1996,6.90625,6.96875,3778800,7.28125,7.28125,5.454584121704102
02-07-1996,7.125,7.15625,2342000,7.25,7.21875,5.407764434814453
03-07-1996,7.125,7.125,1392000,7.21875,7.21875,5.407764434814453
05-07-1996,7.125,7.21875,753600,7.3125,7.28125,5.454584121704102
08-07-1996,7.1875,7.25,924800,7.3125,7.25,5.431174278259277
09-07-1996,7.25,7.25,2440800,7.5625,7.5,5.618458271026611
10-07-1996,7.46875,7.5,3225600,7.65625,7.5625,5.665277004241943
11-07-1996,7.125,7.46875,3954400,7.59375,7.1875,5.389699935913086
12-07-1996,7.125,7.15625,1191200,7.21875,7.15625,5.366267204284668
15-07-1996,7.09375,7.125,1718400,7.34375,7.125,5.342832565307617
16-07-1996,6.5625,7.0625,1854400,7.09375,6.65625,4.991330623626709
17-07-1996,6.6875,6.6875,2270000,6.96875,6.6875,5.014763832092285
18-07-1996,6.65625,6.75,990400,6.8125,6.71875,5.0381975173950195
19-07-1996,6.65625,6.6875,1322800,6.71875,6.6875,5.014763832092285
22-07-1996,6.5625,6.6875,1101600,6.6875,6.59375,4.944463729858398
23-07-1996,6.53125,6.625,2303200,6.8125,6.8125,5.108497619628906
24-07-1996,6.625,6.75,327600,6.75,6.625,4.967897415161133
25-07-1996,6.375,6.625,762800,6.78125,6.375,4.780428409576416
26-07-1996,6.40625,6.40625,462800,6.5625,6.53125,4.897594451904297
29-07-1996,6.4375,6.5,676800,6.53125,6.5,4.8741631507873535
30-07-1996,6.25,6.46875,1988800,6.53125,6.3125,4.733561992645264
31-07-1996,6.125,6.3125,1733600,6.3125,6.25,4.686695098876953
01-08-1996,6.25,6.25,1422800,6.375,6.3125,4.733561992645264
02-08-1996,6.3125,6.3125,1042800,6.46875,6.46875,4.850728511810303
05-08-1996,6.34375,6.46875,503200,6.59375,6.59375,4.944463729858398
06-08-1996,6.5,6.59375,495200,6.65625,6.65625,4.991330623626709
07-08-1996,6.75,6.75,1542800,6.84375,6.84375,5.131932735443115
08-08-1996,6.75,6.84375,767600,6.875,6.84375,5.131932735443115
09-08-1996,6.71875,6.875,634400,6.875,6.71875,5.0381975173950195
12-08-1996,6.625,6.75,167600,6.75,6.625,4.967897415161133
13-08-1996,6.625,6.65625,389600,6.6875,6.625,4.967897415161133
14-08-1996,6.625,6.625,333200,6.65625,6.65625,4.991330623626709
15-08-1996,6.625,6.625,331600,6.75,6.75,5.0616326332092285
16-08-1996,6.625,6.6875,329600,6.71875,6.71875,5.0381975173950195
19-08-1996,6.625,6.65625,339200,6.78125,6.78125,5.085063457489014
20-08-1996,6.6875,6.8125,928800,6.8125,6.75,5.0616326332092285
21-08-1996,6.59375,6.71875,837600,6.71875,6.65625,4.991330623626709
22-08-1996,6.59375,6.65625,433200,6.6875,6.65625,4.991330623626709
23-08-1996,6.5625,6.59375,228800,6.65625,6.625,4.967897415161133
26-08-1996,6.5625,6.625,488000,6.65625,6.65625,4.991330623626709
27-08-1996,6.5,6.625,669600,6.625,6.5,4.8741631507873535
28-08-1996,6.46875,6.5,392800,6.5,6.46875,4.850728511810303
29-08-1996,6.4375,6.46875,499200,6.5,6.46875,4.850728511810303
30-08-1996,6.375,6.4375,160800,6.46875,6.46875,4.850728511810303
03-09-1996,6.5,6.5,1298800,6.59375,6.5625,4.921030044555664
04-09-1996,6.40625,6.53125,356400,6.53125,6.46875,4.850728511810303
05-09-1996,6.375,6.4375,382800,6.5,6.4375,4.827298641204834
06-09-1996,6.3125,6.4375,2431600,6.59375,6.46875,4.850728511810303
09-09-1996,6.40625,6.46875,501200,6.53125,6.5,4.8741631507873535
10-09-1996,6.46875,6.5,488400,6.53125,6.46875,4.850728511810303
11-09-1996,6.46875,6.46875,1305600,6.65625,6.5625,4.921030044555664
12-09-1996,6.28125,6.53125,1240800,6.53125,6.3125,4.733561992645264
13-09-1996,6.125,6.3125,1250400,6.3125,6.125,4.592961311340332
16-09-1996,6.03125,6.125,1839600,6.125,6.0625,4.546095371246338
17-09-1996,5.71875,5.875,3505600,5.9375,5.875,4.40549373626709
18-09-1996,5.875,5.90625,2286800,6.09375,6.0,4.499228000640869
19-09-1996,5.96875,5.96875,2160800,6.09375,6.03125,4.522661209106445
20-09-1996,6.03125,6.03125,601200,6.09375,6.03125,4.522661209106445
23-09-1996,6.0,6.0625,1021600,6.0625,6.03125,4.522661209106445
24-09-1996,5.84375,6.0,1552000,6.0625,5.90625,4.428924083709717
25-09-1996,5.78125,5.90625,1691200,6.0,6.0,4.499228000640869
26-09-1996,6.03125,6.03125,856400,6.15625,6.125,4.592961311340332
27-09-1996,6.0,6.0625,1036000,6.09375,6.03125,4.522661209106445
30-09-1996,6.0,6.0,1134400,6.21875,6.21875,4.663263320922852
01-10-1996,6.25,6.25,956400,6.3125,6.3125,4.733561992645264
02-10-1996,6.28125,6.3125,774800,6.40625,6.375,4.780428409576416
03-10-1996,6.28125,6.375,691600,6.375,6.28125,4.710128307342529
04-10-1996,6.28125,6.34375,592000,6.40625,6.28125,4.710128307342529
07-10-1996,6.25,6.28125,1552000,6.4375,6.40625,4.803860664367676
08-10-1996,6.34375,6.40625,1220000,6.46875,6.375,4.780428409576416
09-10-1996,6.25,6.375,772800,6.375,6.3125,4.733561992645264
10-10-1996,5.9375,6.21875,2254800,6.21875,6.0,4.504579544067383
11-10-1996,5.9375,6.0,1258800,6.0625,5.9375,4.457657337188721
14-10-1996,5.8125,5.9375,2306000,5.96875,5.84375,4.38727331161499
15-10-1996,5.84375,5.875,1424800,6.0,6.0,4.504579544067383
16-10-1996,5.96875,6.0,1880000,6.09375,6.09375,4.5749616622924805
17-10-1996,6.125,6.15625,1636400,6.25,6.25,4.692270278930664
18-10-1996,6.21875,6.25,1060800,6.40625,6.375,4.78611421585083
21-10-1996,6.25,6.34375,722000,6.375,6.25,4.692270278930664
22-10-1996,6.15625,6.25,1494400,6.3125,6.1875,4.645345687866211
23-10-1996,5.96875,6.15625,2842800,6.15625,6.0,4.504579544067383
24-10-1996,6.0,6.03125,1593200,6.09375,6.0625,4.551502227783203
25-10-1996,6.09375,6.09375,1020000,6.21875,6.21875,4.66880989074707
28-10-1996,6.09375,6.15625,995600,6.1875,6.09375,4.5749616622924805
29-10-1996,6.03125,6.09375,1533600,6.15625,6.15625,4.621883869171143
30-10-1996,6.15625,6.15625,3300400,6.375,6.375,4.78611421585083
31-10-1996,6.375,6.375,1713200,6.53125,6.4375,4.833040714263916
01-11-1996,6.25,6.4375,1226800,6.46875,6.28125,4.7157301902771
04-11-1996,6.1875,6.25,1135200,6.28125,6.1875,4.645345687866211
05-11-1996,6.1875,6.25,730800,6.25,6.21875,4.66880989074707
06-11-1996,6.125,6.21875,395600,6.21875,6.125,4.598424434661865
07-11-1996,6.0,6.0,1647200,6.0625,6.0,4.504579544067383
08-11-1996,6.0,6.0625,1212400,6.15625,6.15625,4.621883869171143
11-11-1996,6.15625,6.1875,1075600,6.28125,6.25,4.692270278930664
12-11-1996,6.25,6.3125,1186400,6.375,6.25,4.692270278930664
13-11-1996,6.25,6.28125,1387200,6.28125,6.28125,4.7157301902771
14-11-1996,6.28125,6.28125,2227200,6.3125,6.3125,4.739192485809326
15-11-1996,6.21875,6.28125,1321600,6.34375,6.25,4.692270278930664
18-11-1996,6.1875,6.25,682000,6.25,6.25,4.692270278930664
19-11-1996,6.21875,6.25,2281600,6.40625,6.40625,4.809576511383057
