Date,Low,Open,Volume,High,Close,Adjusted Close
17-03-1980,1.6796879768371582,0.0,164800,1.75,1.6875,0.5693470239639282
18-03-1980,1.6328129768371582,0.0,188800,1.6875,1.65625,0.5588035583496094
19-03-1980,1.6640629768371582,0.0,84800,1.6875,1.6796879768371582,0.5667112469673157
20-03-1980,1.6484379768371582,0.0,328000,1.6875,1.6875,0.5693470239639282
21-03-1980,1.6640629768371582,0.0,249600,1.6796879768371582,1.6640629768371582,0.5614392757415771
24-03-1980,1.640625,0.0,142400,1.6796879768371582,1.6796879768371582,0.5667112469673157
25-03-1980,1.6640629768371582,0.0,249600,1.6875,1.6640629768371582,0.5614392757415771
26-03-1980,1.6484379768371582,0.0,228800,1.6875,1.65625,0.5588035583496094
27-03-1980,1.640625,0.0,268800,1.65625,1.6484379768371582,0.5561676621437073
28-03-1980,1.6484379768371582,0.0,132800,1.671875,1.65625,0.5588035583496094
31-03-1980,1.671875,0.0,363200,1.796875,1.796875,0.6062487363815308
01-04-1980,1.75,0.0,276800,1.8046879768371582,1.765625,0.5957055687904358
02-04-1980,1.7109379768371582,0.0,86400,1.765625,1.7109379768371582,0.5772547125816345
03-04-1980,1.6953129768371582,0.0,156800,1.7265629768371582,1.71875,0.579890251159668
07-04-1980,1.6875,0.0,195200,1.71875,1.6953129768371582,0.5719829201698303
08-04-1980,1.6875,0.0,414400,1.71875,1.7109379768371582,0.5772547125816345
09-04-1980,1.6796879768371582,0.0,432000,1.7109379768371582,1.6875,0.5693470239639282
10-04-1980,1.6796879768371582,0.0,544000,1.703125,1.6875,0.5693470239639282
11-04-1980,1.6953129768371582,0.0,372800,1.734375,1.734375,0.5851618647575378
14-04-1980,1.7265629768371582,0.0,107200,1.75,1.734375,0.5851618647575378
15-04-1980,1.7265629768371582,0.0,110400,1.75,1.7265629768371582,0.5825262069702148
16-04-1980,1.734375,0.0,316800,1.75,1.734375,0.5851618647575378
17-04-1980,1.734375,0.0,108800,1.75,1.734375,0.5851618647575378
18-04-1980,1.734375,0.0,96000,1.75,1.7421879768371582,0.5877978801727295
21-04-1980,1.734375,0.0,128000,1.7421879768371582,1.734375,0.5851618647575378
22-04-1980,1.7265629768371582,0.0,99200,1.765625,1.765625,0.5957055687904358
23-04-1980,1.765625,0.0,123200,1.796875,1.765625,0.5957055687904358
24-04-1980,1.78125,0.0,152000,1.8125,1.7890629768371582,0.6036129593849182
25-04-1980,1.7734379768371582,0.0,67200,1.8125,1.8046879768371582,0.608884871006012
28-04-1980,1.765625,0.0,361600,1.8046879768371582,1.78125,0.6009774208068848
29-04-1980,1.7890629768371582,0.0,164800,1.8359379768371582,1.8125,0.6115209460258484
30-04-1980,1.796875,0.0,152000,1.84375,1.8359379768371582,0.6194283366203308
01-05-1980,1.8203129768371582,0.0,312000,1.8671879768371582,1.859375,0.6273360848426819
02-05-1980,1.875,0.0,476800,1.953125,1.9453129768371582,0.6563304662704468
05-05-1980,1.90625,0.0,828800,1.9296879768371582,1.9296879768371582,0.6510584354400635
06-05-1980,1.8828129768371582,0.0,216000,1.90625,1.8828129768371582,0.6352438926696777
07-05-1980,1.8671879768371582,0.0,209600,1.90625,1.890625,0.6378794312477112
08-05-1980,1.8984379768371582,0.0,158400,1.9140629768371582,1.8984379768371582,0.6405153274536133
09-05-1980,1.8671879768371582,0.0,129600,1.8984379768371582,1.8671879768371582,0.6299721598625183
12-05-1980,1.8671879768371582,0.0,190400,1.875,1.8671879768371582,0.6299721598625183
13-05-1980,1.859375,0.0,70400,1.875,1.875,0.6326075792312622
14-05-1980,1.859375,0.0,129600,1.875,1.875,0.6326075792312622
15-05-1980,1.8125,0.0,240000,1.875,1.859375,0.6273360848426819
16-05-1980,1.765625,0.0,120000,1.84375,1.765625,0.5957055687904358
19-05-1980,1.765625,0.0,148800,1.7890629768371582,1.7890629768371582,0.6036129593849182
20-05-1980,1.7890629768371582,0.0,158400,1.8359379768371582,1.8359379768371582,0.6194283366203308
21-05-1980,1.8203129768371582,0.0,532800,1.8671879768371582,1.8359379768371582,0.6194283366203308
22-05-1980,1.796875,0.0,571200,1.828125,1.828125,0.616792619228363
23-05-1980,1.796875,0.0,224000,1.828125,1.828125,0.616792619228363
27-05-1980,1.8125,0.0,316800,1.8671879768371582,1.828125,0.616792619228363
28-05-1980,1.8359379768371582,0.0,542400,1.8671879768371582,1.8671879768371582,0.6299721598625183
29-05-1980,1.8515629768371582,0.0,187200,1.875,1.8515629768371582,0.624700129032135
30-05-1980,1.84375,0.0,227200,1.890625,1.890625,0.6378794312477112
02-06-1980,1.875,0.0,192000,1.90625,1.890625,0.6378794312477112
03-06-1980,1.90625,0.0,320000,1.953125,1.921875,0.6484227776527405
04-06-1980,1.921875,0.0,123200,1.953125,1.9296879768371582,0.6510584354400635
05-06-1980,1.9375,0.0,467200,2.0,1.96875,0.6642382144927979
06-06-1980,1.9375,0.0,120000,1.96875,1.9375,0.6536948084831238
09-06-1980,1.9296879768371582,0.0,83200,1.953125,1.9375,0.6536948084831238
10-06-1980,1.953125,0.0,203200,1.9921879768371582,1.9921879768371582,0.6721456050872803
11-06-1980,1.9765629768371582,0.0,70400,1.9921879768371582,1.9921879768371582,0.6721456050872803
12-06-1980,1.9609379768371582,0.0,128000,1.984375,1.96875,0.6642382144927979
13-06-1980,1.953125,0.0,176000,1.984375,1.984375,0.6695103049278259
16-06-1980,1.953125,0.0,251200,1.984375,1.9765629768371582,0.6668738722801208
17-06-1980,1.953125,0.0,155200,1.9765629768371582,1.953125,0.6589661836624146
18-06-1980,1.9453129768371582,0.0,147200,1.9609379768371582,1.9609379768371582,0.6616025567054749
19-06-1980,1.9375,0.0,187200,1.9609379768371582,1.9375,0.6536948084831238
20-06-1980,1.9375,0.0,300800,1.9609379768371582,1.953125,0.6589661836624146
23-06-1980,1.9375,0.0,128000,1.953125,1.9375,0.6536948084831238
24-06-1980,1.9375,0.0,452800,1.953125,1.9375,0.6536948084831238
25-06-1980,1.9375,0.0,142400,1.9609379768371582,1.9609379768371582,0.6616025567054749
26-06-1980,1.9296879768371582,0.0,152000,1.953125,1.9375,0.6536948084831238
27-06-1980,1.9296879768371582,0.0,737600,1.9375,1.9375,0.6536948084831238
30-06-1980,1.84375,0.0,265600,1.9375,1.875,0.6326075792312622
01-07-1980,1.84375,0.0,1777600,1.890625,1.890625,0.6378794312477112
02-07-1980,1.875,0.0,489600,1.890625,1.8828129768371582,0.6352438926696777
03-07-1980,1.890625,0.0,136000,1.921875,1.8984379768371582,0.6405153274536133
07-07-1980,1.9140629768371582,0.0,193600,1.9375,1.921875,0.6484227776527405
08-07-1980,1.9375,0.0,206400,1.953125,1.953125,0.6589661836624146
09-07-1980,1.9375,0.0,321600,1.9921879768371582,1.9921879768371582,0.6721456050872803
10-07-1980,1.96875,0.0,627200,2.023437976837158,2.0,0.6747816205024719
11-07-1980,1.984375,0.0,158400,2.015625,2.015625,0.6800530552864075
14-07-1980,2.0,0.0,190400,2.054687976837158,2.054687976837158,0.6932327151298523
15-07-1980,2.046875,0.0,291200,2.078125,2.070312976837158,0.6985040307044983
16-07-1980,2.046875,0.0,859200,2.070312976837158,2.070312976837158,0.6985040307044983
17-07-1980,2.0625,0.0,480000,2.085937976837158,2.078125,0.7011401653289795
18-07-1980,2.070312976837158,0.0,652800,2.148437976837158,2.132812976837158,0.7195917963981628
21-07-1980,2.132812976837158,0.0,268800,2.15625,2.15625,0.7274989485740662
22-07-1980,2.148437976837158,0.0,350400,2.171875,2.148437976837158,0.7248628735542297
23-07-1980,2.125,0.0,280000,2.15625,2.125,0.7169551253318787
24-07-1980,2.125,0.0,332800,2.140625,2.140625,0.7222269773483276
25-07-1980,2.125,0.0,121600,2.140625,2.132812976837158,0.7195917963981628
28-07-1980,2.125,0.0,355200,2.140625,2.140625,0.7222269773483276
29-07-1980,2.132812976837158,0.0,188800,2.171875,2.171875,0.7327706813812256
30-07-1980,2.1875,0.0,1552000,2.195312976837158,2.195312976837158,0.7406785488128662
31-07-1980,2.1875,0.0,1233600,2.210937976837158,2.210937976837158,0.7459503412246704
01-08-1980,2.21875,0.0,305600,2.234375,2.226562976837158,0.7512214779853821
04-08-1980,2.21875,0.0,1603200,2.273437976837158,2.273437976837158,0.7670370936393738
05-08-1980,2.226562976837158,0.0,1168000,2.265625,2.25,0.759128749370575
06-08-1980,2.242187976837158,0.0,254400,2.289062976837158,2.289062976837158,0.7723087668418884
07-08-1980,2.25,0.0,276800,2.273437976837158,2.257812976837158,0.7617655396461487
08-08-1980,2.257812976837158,0.0,598400,2.28125,2.273437976837158,0.7670370936393738
11-08-1980,2.25,0.0,259200,2.257812976837158,2.257812976837158,0.7617655396461487
12-08-1980,2.25,0.0,1137600,2.3125,2.273437976837158,0.7670370936393738
13-08-1980,2.257812976837158,0.0,140800,2.296875,2.265625,0.7644010782241821
14-08-1980,2.25,0.0,126400,2.265625,2.265625,0.7644010782241821
15-08-1980,2.257812976837158,0.0,195200,2.289062976837158,2.257812976837158,0.7617655396461487
18-08-1980,2.203125,0.0,299200,2.25,2.203125,0.7433139085769653
19-08-1980,2.171875,0.0,622400,2.203125,2.179687976837158,0.7354069352149963
20-08-1980,2.148437976837158,0.0,259200,2.195312976837158,2.195312976837158,0.7406785488128662
21-08-1980,2.25,0.0,745600,2.28125,2.265625,0.7644010782241821
22-08-1980,2.257812976837158,0.0,195200,2.28125,2.265625,0.7644010782241821
25-08-1980,2.25,0.0,91200,2.265625,2.25,0.759128749370575
26-08-1980,2.25,0.0,254400,2.28125,2.265625,0.7644010782241821
27-08-1980,2.21875,0.0,336000,2.257812976837158,2.21875,0.7485859394073486
28-08-1980,2.171875,0.0,212800,2.203125,2.171875,0.7327706813812256
29-08-1980,2.15625,0.0,740800,2.1875,2.171875,0.7327706813812256
02-09-1980,2.171875,0.0,155200,2.195312976837158,2.1875,0.7380427122116089
03-09-1980,2.171875,0.0,1081600,2.265625,2.25,0.759128749370575
04-09-1980,2.234375,0.0,416000,2.273437976837158,2.25,0.759128749370575
05-09-1980,2.234375,0.0,731200,2.257812976837158,2.257812976837158,0.7617655396461487
08-09-1980,2.242187976837158,0.0,100800,2.265625,2.242187976837158,0.756493330001831
09-09-1980,2.234375,0.0,91200,2.242187976837158,2.242187976837158,0.756493330001831
10-09-1980,2.234375,0.0,83200,2.242187976837158,2.234375,0.7538569569587708
11-09-1980,2.234375,0.0,60800,2.25,2.25,0.759128749370575
12-09-1980,2.242187976837158,0.0,128000,2.265625,2.265625,0.7644010782241821
15-09-1980,2.25,0.0,236800,2.273437976837158,2.25,0.759128749370575
16-09-1980,2.25,0.0,96000,2.265625,2.265625,0.7644010782241821
17-09-1980,2.25,0.0,1672000,2.335937976837158,2.328125,0.7854880690574646
18-09-1980,2.335937976837158,0.0,201600,2.367187976837158,2.34375,0.7907599210739136
19-09-1980,2.335937976837158,0.0,124800,2.351562976837158,2.34375,0.7907599210739136
22-09-1980,2.34375,0.0,264000,2.359375,2.351562976837158,0.7933957576751709
23-09-1980,2.335937976837158,0.0,488000,2.375,2.351562976837158,0.7933957576751709
24-09-1980,2.328125,0.0,148800,2.335937976837158,2.328125,0.7854880690574646
25-09-1980,2.296875,0.0,265600,2.328125,2.304687976837158,0.7775806784629822
26-09-1980,2.273437976837158,0.0,352000,2.304687976837158,2.289062976837158,0.7723087668418884
29-09-1980,2.265625,0.0,428800,2.28125,2.28125,0.769672691822052
30-09-1980,2.265625,0.0,124800,2.289062976837158,2.289062976837158,0.7723087668418884
01-10-1980,2.257812976837158,0.0,100800,2.28125,2.257812976837158,0.7617655396461487
02-10-1980,2.25,0.0,585600,2.273437976837158,2.273437976837158,0.7670370936393738
03-10-1980,2.265625,0.0,180800,2.289062976837158,2.28125,0.769672691822052
06-10-1980,2.265625,0.0,121600,2.296875,2.265625,0.7644010782241821
07-10-1980,2.25,0.0,459200,2.265625,2.25,0.759128749370575
08-10-1980,2.242187976837158,0.0,817600,2.28125,2.28125,0.769672691822052
09-10-1980,2.25,0.0,443200,2.28125,2.265625,0.7644010782241821
10-10-1980,2.203125,0.0,796800,2.234375,2.226562976837158,0.7512214779853821
13-10-1980,2.210937976837158,0.0,97600,2.226562976837158,2.226562976837158,0.7512214779853821
14-10-1980,2.203125,0.0,224000,2.25,2.203125,0.7433139085769653
15-10-1980,2.1875,0.0,113600,2.203125,2.195312976837158,0.7406785488128662
16-10-1980,2.171875,0.0,425600,2.203125,2.1875,0.7380427122116089
17-10-1980,2.15625,0.0,300800,2.1875,2.1875,0.7380427122116089
20-10-1980,2.164062976837158,0.0,150400,2.1875,2.1875,0.7380427122116089
21-10-1980,2.1875,0.0,566400,2.25,2.25,0.759128749370575
22-10-1980,2.210937976837158,0.0,172800,2.273437976837158,2.234375,0.7538569569587708
23-10-1980,2.234375,0.0,336000,2.265625,2.25,0.759128749370575
24-10-1980,2.234375,0.0,168000,2.265625,2.265625,0.7644010782241821
27-10-1980,2.234375,0.0,521600,2.25,2.25,0.759128749370575
28-10-1980,2.234375,0.0,376000,2.265625,2.257812976837158,0.7617655396461487
29-10-1980,2.25,0.0,251200,2.265625,2.265625,0.7644010782241821
30-10-1980,2.257812976837158,0.0,156800,2.273437976837158,2.265625,0.7644010782241821
31-10-1980,2.25,0.0,243200,2.265625,2.265625,0.7644010782241821
03-11-1980,2.226562976837158,0.0,1062400,2.28125,2.28125,0.769672691822052
05-11-1980,2.273437976837158,0.0,1062400,2.359375,2.28125,0.769672691822052
06-11-1980,2.28125,0.0,531200,2.3125,2.296875,0.7749444246292114
07-11-1980,2.28125,0.0,579200,2.296875,2.28125,0.769672691822052
10-11-1980,2.257812976837158,0.0,180800,2.28125,2.273437976837158,0.7670370936393738
11-11-1980,2.265625,0.0,867200,2.28125,2.265625,0.7644010782241821
12-11-1980,2.25,0.0,281600,2.28125,2.273437976837158,0.7670370936393738
13-11-1980,2.257812976837158,0.0,1980800,2.28125,2.273437976837158,0.7670370936393738
14-11-1980,2.273437976837158,0.0,702400,2.304687976837158,2.304687976837158,0.7775806784629822
17-11-1980,2.289062976837158,0.0,1176000,2.34375,2.328125,0.7854880690574646
18-11-1980,2.328125,0.0,164800,2.351562976837158,2.335937976837158,0.7881237268447876
19-11-1980,2.320312976837158,0.0,241600,2.367187976837158,2.359375,0.7960312366485596
20-11-1980,2.34375,0.0,377600,2.421875,2.398437976837158,0.8092109560966492
21-11-1980,2.3125,0.0,209600,2.398437976837158,2.359375,0.7960312366485596
24-11-1980,2.296875,0.0,243200,2.382812976837158,2.34375,0.7907599210739136
25-11-1980,2.296875,0.0,179200,2.351562976837158,2.3125,0.7802159190177917
26-11-1980,2.195312976837158,0.0,377600,2.265625,2.203125,0.7433139085769653
28-11-1980,2.171875,0.0,323200,2.203125,2.1875,0.7380427122116089
01-12-1980,2.179687976837158,0.0,152000,2.203125,2.1875,0.7380427122116089
02-12-1980,2.171875,0.0,244800,2.203125,2.203125,0.7433139085769653
03-12-1980,2.1875,0.0,182400,2.25,2.25,0.759128749370575
04-12-1980,2.21875,0.0,643200,2.265625,2.25,0.759128749370575
05-12-1980,2.234375,0.0,235200,2.25,2.242187976837158,0.756493330001831
08-12-1980,2.1875,0.0,385600,2.21875,2.203125,0.7433139085769653
09-12-1980,2.1875,0.0,528000,2.203125,2.1875,0.7380427122116089
10-12-1980,2.1875,0.0,206400,2.234375,2.195312976837158,0.7406785488128662
11-12-1980,2.15625,0.0,456000,2.203125,2.15625,0.7274989485740662
12-12-1980,2.148437976837158,0.0,57600,2.171875,2.15625,0.7274989485740662
15-12-1980,2.117187976837158,0.0,472000,2.148437976837158,2.117187976837158,0.71431964635849
16-12-1980,2.046875,0.0,131200,2.101562976837158,2.0625,0.695868730545044
17-12-1980,2.070312976837158,0.0,276800,2.101562976837158,2.085937976837158,0.7037761807441711
18-12-1980,2.0625,0.0,168000,2.078125,2.070312976837158,0.6985040307044983
19-12-1980,2.0625,0.0,504000,2.140625,2.140625,0.7222269773483276
22-12-1980,2.125,0.0,384000,2.164062976837158,2.164062976837158,0.7301349639892578
23-12-1980,2.140625,0.0,184000,2.1875,2.15625,0.7274989485740662
24-12-1980,2.132812976837158,0.0,1203200,2.242187976837158,2.242187976837158,0.756493330001831
26-12-1980,2.226562976837158,0.0,97600,2.265625,2.25,0.759128749370575
29-12-1980,2.234375,0.0,324800,2.304687976837158,2.265625,0.7644010782241821
30-12-1980,2.234375,0.0,1240000,2.328125,2.328125,0.7854880690574646
31-12-1980,2.320312976837158,0.0,928000,2.546875,2.546875,0.8592923879623413
02-01-1981,2.5,0.0,483200,2.546875,2.546875,0.8592923879623413
05-01-1981,2.5,0.0,1252800,2.601562976837158,2.515625,0.8487483859062195
06-01-1981,2.40625,0.0,296000,2.5,2.421875,0.8171177506446838
07-01-1981,2.25,0.0,540800,2.375,2.359375,0.7960312366485596
08-01-1981,2.21875,0.0,680000,2.367187976837158,2.296875,0.7749444246292114
09-01-1981,2.289062976837158,0.0,1307200,2.398437976837158,2.398437976837158,0.8092109560966492
12-01-1981,2.4375,0.0,1108800,2.554687976837158,2.53125,0.854020357131958
13-01-1981,2.5,0.0,276800,2.53125,2.515625,0.8487483859062195
14-01-1981,2.5,0.0,1025600,2.578125,2.523437976837158,0.8513844609260559
15-01-1981,2.5,0.0,310400,2.53125,2.515625,0.8487483859062195
16-01-1981,2.507812976837158,0.0,820800,2.640625,2.640625,0.8909223675727844
19-01-1981,2.578125,0.0,768000,2.65625,2.625,0.8856502771377563
20-01-1981,2.640625,0.0,822400,2.671875,2.664062976837158,0.8988302946090698
21-01-1981,2.625,0.0,2556800,2.703125,2.6875,0.9067383408546448
22-01-1981,2.609375,0.0,1601600,2.765625,2.640625,0.8909223675727844
23-01-1981,2.578125,0.0,1859200,2.640625,2.625,0.8856502771377563
26-01-1981,2.5625,0.0,329600,2.601562976837158,2.5625,0.8645636439323425
27-01-1981,2.5625,0.0,753600,2.59375,2.585937976837158,0.872471272945404
28-01-1981,2.578125,0.0,358400,2.648437976837158,2.625,0.8856502771377563
29-01-1981,2.625,0.0,262400,2.6875,2.65625,0.8961943984031677
30-01-1981,2.640625,0.0,358400,2.695312976837158,2.664062976837158,0.8988302946090698
02-02-1981,2.578125,0.0,187200,2.648437976837158,2.59375,0.8751068115234375
03-02-1981,2.578125,0.0,313600,2.640625,2.625,0.8856502771377563
04-02-1981,2.570312976837158,0.0,601600,2.65625,2.578125,0.8698353171348572
05-02-1981,2.570312976837158,0.0,201600,2.625,2.625,0.8856502771377563
06-02-1981,2.625,0.0,532800,2.71875,2.710937976837158,0.9146451950073242
09-02-1981,2.664062976837158,0.0,464000,2.71875,2.703125,0.9120092988014221
10-02-1981,2.6875,0.0,472000,2.71875,2.703125,0.9120092988014221
11-02-1981,2.65625,0.0,617600,2.703125,2.6875,0.9067383408546448
12-02-1981,2.625,0.0,196800,2.679687976837158,2.679687976837158,0.9041017293930054
13-02-1981,2.609375,0.0,156800,2.671875,2.640625,0.8909223675727844
17-02-1981,2.601562976837158,0.0,345600,2.65625,2.609375,0.8803791403770447
18-02-1981,2.5625,0.0,428800,2.640625,2.59375,0.8751068115234375
19-02-1981,2.53125,0.0,601600,2.59375,2.546875,0.8592923879623413
20-02-1981,2.539062976837158,0.0,329600,2.554687976837158,2.546875,0.8592923879623413
23-02-1981,2.546875,0.0,427200,2.585937976837158,2.585937976837158,0.872471272945404
24-02-1981,2.59375,0.0,334400,2.632812976837158,2.625,0.8856502771377563
25-02-1981,2.609375,0.0,4424000,2.9375,2.9375,0.991085410118103
26-02-1981,2.875,0.0,5041600,3.09375,3.046875,1.0279872417449951
27-02-1981,2.992187976837158,0.0,3398400,3.15625,3.15625,1.0648890733718872
02-03-1981,3.140625,0.0,3272000,3.234375,3.210937976837158,1.083341121673584
03-03-1981,3.09375,0.0,3803200,3.234375,3.148437976837158,1.062253475189209
04-03-1981,3.0625,0.0,1982400,3.125,3.125,1.0543458461761475
05-03-1981,2.984375,0.0,1225600,3.117187976837158,3.0,1.0121718645095825
06-03-1981,2.890625,0.0,1899200,3.039062976837158,3.03125,1.022715449333191
09-03-1981,2.96875,0.0,712000,3.0625,3.0625,1.0332592725753784
10-03-1981,2.9375,0.0,497600,3.046875,2.960937976837158,0.9989931583404541
11-03-1981,2.914062976837158,0.0,1625600,2.984375,2.96875,1.0016288757324219
12-03-1981,2.9375,0.0,1329600,3.09375,3.078125,1.038530707359314
13-03-1981,3.09375,0.0,1672000,3.140625,3.125,1.0543458461761475
16-03-1981,3.0625,0.0,566400,3.140625,3.109375,1.0490745306015015
17-03-1981,3.117187976837158,0.0,2062400,3.1875,3.164062976837158,1.067525029182434
18-03-1981,3.125,0.0,1782400,3.296875,3.21875,1.0859766006469727
19-03-1981,3.171875,0.0,648000,3.265625,3.171875,1.0701615810394287
20-03-1981,3.15625,0.0,884800,3.25,3.195312976837158,1.0780689716339111
23-03-1981,3.171875,0.0,368000,3.234375,3.21875,1.0859766006469727
24-03-1981,3.125,0.0,760000,3.25,3.179687976837158,1.0727967023849487
25-03-1981,3.171875,0.0,6833600,3.492187976837158,3.453125,1.165051817893982
26-03-1981,3.34375,0.0,2190400,3.46875,3.34375,1.128150463104248
27-03-1981,3.328125,0.0,1571200,3.460937976837158,3.390625,1.1439653635025024
30-03-1981,3.28125,0.0,1011200,3.398437976837158,3.28125,1.1070637702941895
31-03-1981,3.328125,0.0,1208000,3.398437976837158,3.382812976837158,1.1413298845291138
01-04-1981,3.335937976837158,0.0,1326400,3.4375,3.40625,1.1492375135421753
02-04-1981,3.28125,0.0,723200,3.421875,3.359375,1.1334222555160522
03-04-1981,3.28125,0.0,817600,3.367187976837158,3.296875,1.1123353242874146
06-04-1981,3.3125,0.0,2217600,3.609375,3.609375,1.2177692651748657
07-04-1981,3.515625,0.0,2635200,3.640625,3.546875,1.1966832876205444
08-04-1981,3.46875,0.0,968000,3.585937976837158,3.484375,1.1755955219268799
09-04-1981,3.46875,0.0,2723200,3.5625,3.515625,1.1861389875411987
10-04-1981,3.46875,0.0,1227200,3.5625,3.5625,1.2019548416137695
13-04-1981,3.5625,0.0,1553600,3.609375,3.578125,1.2072254419326782
14-04-1981,3.484375,0.0,555200,3.5625,3.5,1.1808679103851318
15-04-1981,3.4375,0.0,665600,3.507812976837158,3.492187976837158,1.1782318353652954
16-04-1981,3.476562976837158,0.0,716800,3.523437976837158,3.523437976837158,1.1887753009796143
20-04-1981,3.492187976837158,0.0,400000,3.53125,3.515625,1.1861389875411987
21-04-1981,3.296875,0.0,1460800,3.523437976837158,3.296875,1.1123353242874146
22-04-1981,3.28125,0.0,824000,3.367187976837158,3.320312976837158,1.1202428340911865
23-04-1981,3.3125,0.0,907200,3.421875,3.382812976837158,1.1413298845291138
24-04-1981,3.34375,0.0,995200,3.421875,3.40625,1.1492375135421753
27-04-1981,3.375,0.0,1088000,3.453125,3.40625,1.1492375135421753
28-04-1981,3.234375,0.0,592000,3.390625,3.289062976837158,1.109699010848999
29-04-1981,3.15625,0.0,633600,3.25,3.179687976837158,1.0727967023849487
30-04-1981,3.164062976837158,0.0,756800,3.210937976837158,3.1875,1.0754331350326538
01-05-1981,3.171875,0.0,1225600,3.296875,3.25,1.0965198278427124
04-05-1981,3.171875,0.0,536000,3.25,3.195312976837158,1.0780689716339111
05-05-1981,3.09375,0.0,937600,3.140625,3.101562976837158,1.0464385747909546
06-05-1981,3.109375,0.0,716800,3.15625,3.117187976837158,1.0517107248306274
07-05-1981,3.109375,0.0,876800,3.203125,3.1875,1.0754331350326538
08-05-1981,3.164062976837158,0.0,827200,3.203125,3.1875,1.0754331350326538
11-05-1981,3.101562976837158,0.0,372800,3.210937976837158,3.101562976837158,1.0464385747909546
12-05-1981,3.0625,0.0,782400,3.109375,3.078125,1.038530707359314
13-05-1981,3.046875,0.0,374400,3.125,3.09375,1.0438027381896973
14-05-1981,3.078125,0.0,1054400,3.203125,3.125,1.0543458461761475
15-05-1981,3.109375,0.0,748800,3.15625,3.140625,1.0596181154251099
18-05-1981,3.117187976837158,0.0,348800,3.148437976837158,3.132812976837158,1.0569815635681152
19-05-1981,3.125,0.0,654400,3.203125,3.1875,1.0754331350326538
20-05-1981,3.203125,0.0,1464000,3.40625,3.398437976837158,1.1466008424758911
21-05-1981,3.320312976837158,0.0,801600,3.398437976837158,3.375,1.1386940479278564
22-05-1981,3.296875,0.0,388800,3.367187976837158,3.328125,1.1228785514831543
26-05-1981,3.289062976837158,0.0,444800,3.328125,3.328125,1.1228785514831543
27-05-1981,3.265625,0.0,400000,3.359375,3.273437976837158,1.1044272184371948
28-05-1981,3.234375,0.0,273600,3.296875,3.234375,1.0912480354309082
29-05-1981,3.171875,0.0,212800,3.21875,3.203125,1.0807050466537476
01-06-1981,3.140625,0.0,1132800,3.242187976837158,3.140625,1.0596181154251099
02-06-1981,3.0,0.0,675200,3.125,3.0625,1.0332592725753784
03-06-1981,2.9375,0.0,411200,3.046875,2.960937976837158,0.9989931583404541
04-06-1981,2.945312976837158,0.0,344000,2.976562976837158,2.96875,1.0016288757324219
05-06-1981,2.921875,0.0,1054400,3.039062976837158,3.03125,1.022715449333191
08-06-1981,3.015625,0.0,347200,3.078125,3.03125,1.022715449333191
09-06-1981,3.0,0.0,750400,3.078125,3.046875,1.0279872417449951
10-06-1981,3.0,0.0,369600,3.085937976837158,3.0625,1.0332592725753784
11-06-1981,3.078125,0.0,139200,3.15625,3.15625,1.0648890733718872
12-06-1981,3.085937976837158,0.0,171200,3.140625,3.09375,1.0438027381896973
15-06-1981,3.078125,0.0,233600,3.140625,3.140625,1.0596181154251099
16-06-1981,3.101562976837158,0.0,150400,3.132812976837158,3.109375,1.0490745306015015
17-06-1981,3.054687976837158,0.0,256000,3.09375,3.078125,1.038530707359314
18-06-1981,3.007812976837158,0.0,185600,3.078125,3.015625,1.0174427032470703
19-06-1981,2.9375,0.0,196800,3.0,2.953125,0.9963570237159729
22-06-1981,2.9375,0.0,363200,2.984375,2.960937976837158,0.9989931583404541
23-06-1981,2.945312976837158,0.0,195200,2.992187976837158,2.96875,1.0016288757324219
24-06-1981,2.90625,0.0,224000,2.976562976837158,2.9375,0.991085410118103
25-06-1981,2.921875,0.0,192000,2.960937976837158,2.9375,0.991085410118103
26-06-1981,2.828125,0.0,332800,2.929687976837158,2.875,0.969998836517334
29-06-1981,2.875,0.0,454400,2.921875,2.914062976837158,0.9831780195236206
30-06-1981,2.914062976837158,0.0,284800,2.960937976837158,2.9375,0.991085410118103
01-07-1981,2.921875,0.0,190400,2.953125,2.945312976837158,0.9937207698822021
02-07-1981,2.921875,0.0,67200,2.953125,2.9375,0.991085410118103
06-07-1981,2.890625,0.0,198400,2.929687976837158,2.90625,0.9805419445037842
07-07-1981,2.796875,0.0,302400,2.898437976837158,2.804687976837158,0.9462757110595703
08-07-1981,2.742187976837158,0.0,870400,2.8125,2.765625,0.9330962300300598
09-07-1981,2.71875,0.0,662400,2.75,2.75,0.9278245568275452
10-07-1981,2.710937976837158,0.0,360000,2.757812976837158,2.71875,0.9172813892364502
13-07-1981,2.6875,0.0,428800,2.726562976837158,2.695312976837158,0.9093732237815857
14-07-1981,2.6875,0.0,577600,2.710937976837158,2.703125,0.9120092988014221
15-07-1981,2.695312976837158,0.0,2560000,2.875,2.796875,0.9436396360397339
16-07-1981,2.796875,0.0,1044800,2.835937976837158,2.835937976837158,0.9568184018135071
17-07-1981,2.828125,0.0,542400,2.898437976837158,2.84375,0.9594545960426331
20-07-1981,2.75,0.0,889600,2.84375,2.765625,0.9330962300300598
21-07-1981,2.742187976837158,0.0,651200,2.8125,2.742187976837158,0.9251891374588013
22-07-1981,2.703125,0.0,379200,2.765625,2.703125,0.9120092988014221
23-07-1981,2.671875,0.0,664000,2.757812976837158,2.726562976837158,0.9199169874191284
24-07-1981,2.71875,0.0,174400,2.765625,2.75,0.9278245568275452
27-07-1981,2.71875,0.0,350400,2.78125,2.71875,0.9172813892364502
28-07-1981,2.703125,0.0,1201600,2.78125,2.78125,0.9383680820465088
29-07-1981,2.78125,0.0,1441600,2.835937976837158,2.796875,0.9436396360397339
30-07-1981,2.773437976837158,0.0,329600,2.820312976837158,2.789062976837158,0.9410040378570557
31-07-1981,2.78125,0.0,241600,2.8125,2.78125,0.9383680820465088
03-08-1981,2.773437976837158,0.0,460800,2.8125,2.796875,0.9436396360397339
04-08-1981,2.757812976837158,0.0,310400,2.8125,2.796875,0.9436396360397339
05-08-1981,2.796875,0.0,454400,2.890625,2.890625,0.9752696752548218
06-08-1981,2.859375,0.0,1337600,2.945312976837158,2.875,0.969998836517334
07-08-1981,2.835937976837158,0.0,129600,2.890625,2.851562976837158,0.9620906710624695
10-08-1981,2.835937976837158,0.0,798400,2.875,2.875,0.969998836517334
11-08-1981,2.890625,0.0,822400,2.96875,2.953125,0.9963570237159729
12-08-1981,2.875,0.0,324800,2.984375,2.882812976837158,0.9726340174674988
13-08-1981,2.835937976837158,0.0,112000,2.875,2.859375,0.9647265076637268
14-08-1981,2.851562976837158,0.0,268800,2.929687976837158,2.90625,0.9805419445037842
17-08-1981,2.851562976837158,0.0,265600,2.921875,2.882812976837158,0.9726340174674988
18-08-1981,2.8125,0.0,1198400,2.882812976837158,2.835937976837158,0.9568184018135071
19-08-1981,2.828125,0.0,326400,2.859375,2.859375,0.9647265076637268
20-08-1981,2.851562976837158,0.0,166400,2.867187976837158,2.851562976837158,0.9620906710624695
21-08-1981,2.828125,0.0,675200,2.859375,2.835937976837158,0.9568184018135071
24-08-1981,2.828125,0.0,747200,2.851562976837158,2.851562976837158,0.9620906710624695
25-08-1981,2.835937976837158,0.0,464000,2.898437976837158,2.882812976837158,0.9726340174674988
26-08-1981,2.867187976837158,0.0,120000,2.890625,2.867187976837158,0.9673628807067871
27-08-1981,2.867187976837158,0.0,112000,2.875,2.867187976837158,0.9673628807067871
28-08-1981,2.867187976837158,0.0,248000,2.875,2.867187976837158,0.9673628807067871
31-08-1981,2.859375,0.0,196800,2.867187976837158,2.859375,0.9647265076637268
01-09-1981,2.867187976837158,0.0,342400,2.875,2.867187976837158,0.9673628807067871
02-09-1981,2.875,0.0,153600,2.898437976837158,2.882812976837158,0.9726340174674988
03-09-1981,2.859375,0.0,315200,2.890625,2.859375,0.9647265076637268
04-09-1981,2.796875,0.0,465600,2.84375,2.8125,0.9489114284515381
08-09-1981,2.65625,0.0,449600,2.789062976837158,2.695312976837158,0.9093732237815857
09-09-1981,2.664062976837158,0.0,278400,2.703125,2.6875,0.9067383408546448
10-09-1981,2.6875,0.0,217600,2.757812976837158,2.726562976837158,0.9199169874191284
11-09-1981,2.6875,0.0,230400,2.726562976837158,2.703125,0.9120092988014221
14-09-1981,2.695312976837158,0.0,393600,2.71875,2.710937976837158,0.9146451950073242
15-09-1981,2.703125,0.0,355200,2.75,2.703125,0.9120092988014221
16-09-1981,2.703125,0.0,403200,2.734375,2.734375,0.9225523471832275
17-09-1981,2.710937976837158,0.0,89600,2.734375,2.710937976837158,0.9146451950073242
18-09-1981,2.632812976837158,0.0,1006400,2.703125,2.640625,0.8909223675727844
21-09-1981,2.640625,0.0,283200,2.648437976837158,2.648437976837158,0.8935590386390686
22-09-1981,2.632812976837158,0.0,240000,2.648437976837158,2.648437976837158,0.8935590386390686
23-09-1981,2.59375,0.0,523200,2.625,2.609375,0.8803791403770447
24-09-1981,2.578125,0.0,484800,2.640625,2.59375,0.8751068115234375
25-09-1981,2.460937976837158,0.0,366400,2.59375,2.46875,0.8329333066940308
28-09-1981,2.390625,0.0,694400,2.546875,2.546875,0.8592923879623413
29-09-1981,2.5625,0.0,737600,2.625,2.5625,0.8645636439323425
30-09-1981,2.5,0.0,313600,2.554687976837158,2.515625,0.8487483859062195
01-10-1981,2.453125,0.0,964800,2.523437976837158,2.492187976837158,0.8408406972885132
02-10-1981,2.476562976837158,0.0,2206400,2.523437976837158,2.523437976837158,0.8513844609260559
05-10-1981,2.476562976837158,0.0,516800,2.53125,2.492187976837158,0.8408406972885132
06-10-1981,2.421875,0.0,513600,2.492187976837158,2.4375,0.8223899006843567
07-10-1981,2.40625,0.0,182400,2.4375,2.421875,0.8171177506446838
08-10-1981,2.40625,0.0,644800,2.460937976837158,2.453125,0.8276617527008057
09-10-1981,2.421875,0.0,329600,2.453125,2.4375,0.8223899006843567
12-10-1981,2.414062976837158,0.0,387200,2.4375,2.4375,0.8223899006843567
13-10-1981,2.421875,0.0,110400,2.445312976837158,2.429687976837158,0.8197540640830994
14-10-1981,2.421875,0.0,70400,2.4375,2.421875,0.8171177506446838
15-10-1981,2.421875,0.0,132800,2.4375,2.429687976837158,0.8197540640830994
16-10-1981,2.429687976837158,0.0,1144000,2.453125,2.429687976837158,0.8197540640830994
19-10-1981,2.414062976837158,0.0,216000,2.445312976837158,2.445312976837158,0.8250261545181274
20-10-1981,2.390625,0.0,1475200,2.421875,2.390625,0.8065745830535889
21-10-1981,2.375,0.0,419200,2.414062976837158,2.390625,0.8065745830535889
22-10-1981,2.3125,0.0,283200,2.382812976837158,2.34375,0.7907599210739136
23-10-1981,2.289062976837158,0.0,372800,2.359375,2.296875,0.7749444246292114
26-10-1981,2.289062976837158,0.0,108800,2.328125,2.304687976837158,0.7775806784629822
27-10-1981,2.304687976837158,0.0,153600,2.367187976837158,2.351562976837158,0.7933957576751709
28-10-1981,2.351562976837158,0.0,648000,2.421875,2.382812976837158,0.8039388656616211
29-10-1981,2.351562976837158,0.0,318400,2.382812976837158,2.359375,0.7960312366485596
30-10-1981,2.351562976837158,0.0,491200,2.390625,2.390625,0.8065745830535889
02-11-1981,2.414062976837158,0.0,1241600,2.46875,2.4375,0.8223899006843567
03-11-1981,2.445312976837158,0.0,411200,2.53125,2.53125,0.854020357131958
04-11-1981,2.5,0.0,1062400,2.53125,2.507812976837158,0.8461129069328308
05-11-1981,2.507812976837158,0.0,451200,2.5625,2.546875,0.8592923879623413
06-11-1981,2.515625,0.0,161600,2.570312976837158,2.5625,0.8645636439323425
09-11-1981,2.539062976837158,0.0,91200,2.570312976837158,2.570312976837158,0.867199718952179
10-11-1981,2.59375,0.0,137600,2.617187976837158,2.59375,0.8751068115234375
11-11-1981,2.59375,0.0,331200,2.617187976837158,2.617187976837158,0.8830150961875916
12-11-1981,2.59375,0.0,236800,2.640625,2.609375,0.8803791403770447
13-11-1981,2.53125,0.0,358400,2.59375,2.554687976837158,0.8619276881217957
16-11-1981,2.453125,0.0,284800,2.53125,2.476562976837158,0.835569441318512
17-11-1981,2.46875,0.0,500800,2.5,2.492187976837158,0.8408406972885132
18-11-1981,2.46875,0.0,926400,2.5,2.46875,0.8329333066940308
19-11-1981,2.460937976837158,0.0,518400,2.484375,2.476562976837158,0.835569441318512
20-11-1981,2.476562976837158,0.0,86400,2.5,2.5,0.8434765934944153
23-11-1981,2.445312976837158,0.0,190400,2.492187976837158,2.460937976837158,0.8302977085113525
24-11-1981,2.445312976837158,0.0,150400,2.46875,2.460937976837158,0.8302977085113525
25-11-1981,2.445312976837158,0.0,1275200,2.484375,2.453125,0.8276617527008057
27-11-1981,2.453125,0.0,196800,2.476562976837158,2.476562976837158,0.835569441318512
30-11-1981,2.460937976837158,0.0,275200,2.53125,2.515625,0.8487483859062195
01-12-1981,2.453125,0.0,657600,2.523437976837158,2.484375,0.8382054567337036
02-12-1981,2.445312976837158,0.0,364800,2.507812976837158,2.484375,0.8382054567337036
03-12-1981,2.476562976837158,0.0,422400,2.515625,2.515625,0.8487483859062195
04-12-1981,2.5,0.0,1816000,2.53125,2.515625,0.8487483859062195
07-12-1981,2.46875,0.0,400000,2.53125,2.492187976837158,0.8408406972885132
08-12-1981,2.460937976837158,0.0,201600,2.492187976837158,2.46875,0.8329333066940308
09-12-1981,2.460937976837158,0.0,347200,2.492187976837158,2.484375,0.8382054567337036
10-12-1981,2.460937976837158,0.0,403200,2.5,2.492187976837158,0.8408406972885132
11-12-1981,2.484375,0.0,281600,2.515625,2.515625,0.8487483859062195
14-12-1981,2.4375,0.0,860800,2.492187976837158,2.453125,0.8276617527008057
15-12-1981,2.390625,0.0,264000,2.453125,2.445312976837158,0.8250261545181274
16-12-1981,2.4375,0.0,113600,2.453125,2.445312976837158,0.8250261545181274
17-12-1981,2.4375,0.0,363200,2.453125,2.4375,0.8223899006843567
18-12-1981,2.421875,0.0,209600,2.445312976837158,2.421875,0.8171177506446838
21-12-1981,2.375,0.0,670400,2.4375,2.375,0.8013026118278503
22-12-1981,2.359375,0.0,240000,2.390625,2.375,0.8013026118278503
23-12-1981,2.351562976837158,0.0,388800,2.382812976837158,2.375,0.8013026118278503
24-12-1981,2.367187976837158,0.0,520000,2.382812976837158,2.382812976837158,0.8039388656616211
28-12-1981,2.3125,0.0,1014400,2.375,2.3125,0.7802159190177917
29-12-1981,2.3125,0.0,248000,2.328125,2.3125,0.7802159190177917
30-12-1981,2.3125,0.0,195200,2.335937976837158,2.328125,0.7854880690574646
31-12-1981,2.21875,0.0,580800,2.375,2.359375,0.7960312366485596
04-01-1982,2.335937976837158,0.0,728000,2.367187976837158,2.367187976837158,0.7986669540405273
05-01-1982,2.296875,0.0,278400,2.359375,2.328125,0.7854880690574646
06-01-1982,2.289062976837158,0.0,336000,2.328125,2.328125,0.7854880690574646
07-01-1982,2.28125,0.0,408000,2.335937976837158,2.296875,0.7749444246292114
08-01-1982,2.257812976837158,0.0,228800,2.3125,2.265625,0.7644010782241821
11-01-1982,2.1875,0.0,5382400,2.265625,2.1875,0.7380427122116089
12-01-1982,2.15625,0.0,358400,2.210937976837158,2.203125,0.7433139085769653
13-01-1982,2.171875,0.0,507200,2.21875,2.1875,0.7380427122116089
14-01-1982,2.15625,0.0,177600,2.179687976837158,2.179687976837158,0.7354069352149963
15-01-1982,2.140625,0.0,291200,2.1875,2.15625,0.7274989485740662
18-01-1982,2.0,0.0,10244800,2.132812976837158,2.0625,0.695868730545044
19-01-1982,2.039062976837158,0.0,312000,2.085937976837158,2.054687976837158,0.6932327151298523
20-01-1982,2.023437976837158,0.0,492800,2.0625,2.046875,0.6905961036682129
21-01-1982,2.023437976837158,0.0,321600,2.046875,2.046875,0.6905961036682129
22-01-1982,2.0,0.0,1499200,2.03125,2.03125,0.6853248476982117
25-01-1982,2.0,0.0,403200,2.03125,2.015625,0.6800530552864075
26-01-1982,1.96875,0.0,1643200,2.015625,2.0,0.6747816205024719
27-01-1982,1.9921879768371582,0.0,345600,2.007812976837158,2.007812976837158,0.6774172782897949
28-01-1982,1.9921879768371582,0.0,492800,2.039062976837158,2.039062976837158,0.6879607439041138
29-01-1982,2.0625,0.0,1184000,2.09375,2.085937976837158,0.7037761807441711
01-02-1982,2.03125,0.0,243200,2.078125,2.046875,0.6905961036682129
02-02-1982,2.007812976837158,0.0,283200,2.0625,2.0625,0.695868730545044
03-02-1982,2.039062976837158,0.0,523200,2.070312976837158,2.070312976837158,0.6985040307044983
04-02-1982,2.046875,0.0,222400,2.078125,2.078125,0.7011401653289795
05-02-1982,2.070312976837158,0.0,353600,2.148437976837158,2.148437976837158,0.7248628735542297
08-02-1982,2.078125,0.0,721600,2.125,2.078125,0.7011401653289795
09-02-1982,2.015625,0.0,203200,2.046875,2.039062976837158,0.6879607439041138
10-02-1982,2.015625,0.0,596800,2.039062976837158,2.039062976837158,0.6879607439041138
11-02-1982,1.9296879768371582,0.0,480000,2.039062976837158,1.953125,0.6589661836624146
12-02-1982,1.9375,0.0,304000,1.9765629768371582,1.9765629768371582,0.6668738722801208
16-02-1982,1.9375,0.0,512000,1.984375,1.984375,0.6695103049278259
17-02-1982,1.9609379768371582,0.0,233600,2.0,1.9765629768371582,0.6668738722801208
18-02-1982,1.9375,0.0,363200,1.9765629768371582,1.9765629768371582,0.6668738722801208
19-02-1982,1.9453129768371582,0.0,192000,1.984375,1.96875,0.6642382144927979
22-02-1982,1.9375,0.0,1331200,2.023437976837158,1.9453129768371582,0.6563304662704468
23-02-1982,1.9453129768371582,0.0,182400,1.96875,1.9609379768371582,0.6616025567054749
24-02-1982,1.921875,0.0,2142400,1.9609379768371582,1.953125,0.6589661836624146
25-02-1982,1.953125,0.0,889600,1.9765629768371582,1.953125,0.6589661836624146
26-02-1982,1.9453129768371582,0.0,939200,1.96875,1.9609379768371582,0.6616025567054749
01-03-1982,1.9375,0.0,419200,1.96875,1.9375,0.6536948084831238
02-03-1982,1.921875,0.0,336000,1.953125,1.9296879768371582,0.6510584354400635
03-03-1982,1.890625,0.0,409600,1.9296879768371582,1.90625,0.643151044845581
04-03-1982,1.8828129768371582,0.0,235200,1.921875,1.890625,0.6378794312477112
05-03-1982,1.875,0.0,265600,1.90625,1.875,0.6326075792312622
08-03-1982,1.84375,0.0,560000,1.8828129768371582,1.84375,0.6220642328262329
09-03-1982,1.8125,0.0,1928000,1.8515629768371582,1.828125,0.616792619228363
10-03-1982,1.8203129768371582,0.0,656000,1.859375,1.859375,0.6273360848426819
11-03-1982,1.84375,0.0,712000,1.9375,1.9375,0.6536948084831238
12-03-1982,1.90625,0.0,336000,1.9609379768371582,1.9609379768371582,0.6616025567054749
15-03-1982,1.9453129768371582,0.0,176000,2.0,1.9921879768371582,0.6721456050872803
16-03-1982,1.9765629768371582,0.0,998400,2.007812976837158,2.007812976837158,0.6774172782897949
17-03-1982,1.96875,0.0,952000,2.023437976837158,2.0,0.6747816205024719
18-03-1982,1.9375,0.0,616000,2.0,1.96875,0.6642382144927979
19-03-1982,1.9375,0.0,812800,1.96875,1.96875,0.6642382144927979
22-03-1982,1.9375,0.0,342400,1.96875,1.9609379768371582,0.6616025567054749
23-03-1982,1.9609379768371582,0.0,1097600,2.015625,1.9921879768371582,0.6721456050872803
24-03-1982,2.0,0.0,291200,2.03125,2.015625,0.6800530552864075
25-03-1982,1.96875,0.0,1993600,2.0,1.9921879768371582,0.6721456050872803
26-03-1982,1.953125,0.0,265600,1.9921879768371582,1.9609379768371582,0.6616025567054749
29-03-1982,1.9609379768371582,0.0,44800,1.984375,1.984375,0.6695103049278259
30-03-1982,1.9765629768371582,0.0,248000,2.007812976837158,1.9921879768371582,0.6721456050872803
31-03-1982,1.96875,0.0,72000,1.984375,1.9765629768371582,0.6668738722801208
01-04-1982,1.96875,0.0,228800,2.0,2.0,0.6747816205024719
02-04-1982,1.9765629768371582,0.0,385600,2.015625,2.007812976837158,0.6774172782897949
05-04-1982,2.0,0.0,372800,2.03125,2.007812976837158,0.6774172782897949
06-04-1982,2.007812976837158,0.0,211200,2.023437976837158,2.015625,0.6800530552864075
07-04-1982,2.007812976837158,0.0,254400,2.03125,2.03125,0.6853248476982117
08-04-1982,2.015625,0.0,155200,2.046875,2.023437976837158,0.6826896071434021
12-04-1982,2.007812976837158,0.0,131200,2.039062976837158,2.023437976837158,0.6826896071434021
13-04-1982,2.023437976837158,0.0,312000,2.046875,2.039062976837158,0.6879607439041138
14-04-1982,2.023437976837158,0.0,408000,2.054687976837158,2.054687976837158,0.6932327151298523
15-04-1982,2.0,0.0,2214400,2.054687976837158,2.007812976837158,0.6774172782897949
16-04-1982,1.984375,0.0,672000,2.015625,2.0,0.6747816205024719
19-04-1982,1.9921879768371582,0.0,412800,2.015625,2.015625,0.6800530552864075
20-04-1982,2.0,0.0,228800,2.015625,2.015625,0.6800530552864075
21-04-1982,2.0,0.0,352000,2.03125,2.015625,0.6800530552864075
22-04-1982,2.0,0.0,467200,2.03125,2.015625,0.6800530552864075
23-04-1982,2.007812976837158,0.0,787200,2.054687976837158,2.054687976837158,0.6932327151298523
26-04-1982,2.070312976837158,0.0,516800,2.117187976837158,2.117187976837158,0.71431964635849
27-04-1982,2.109375,0.0,404800,2.15625,2.117187976837158,0.71431964635849
28-04-1982,2.117187976837158,0.0,116800,2.148437976837158,2.125,0.7169551253318787
29-04-1982,2.078125,0.0,249600,2.125,2.085937976837158,0.7037761807441711
30-04-1982,2.046875,0.0,862400,2.132812976837158,2.132812976837158,0.7195917963981628
03-05-1982,2.09375,0.0,3374400,2.164062976837158,2.15625,0.7274989485740662
04-05-1982,2.101562976837158,0.0,3448000,2.15625,2.117187976837158,0.71431964635849
05-05-1982,2.09375,0.0,745600,2.140625,2.117187976837158,0.71431964635849
06-05-1982,2.101562976837158,0.0,491200,2.140625,2.109375,0.711683988571167
07-05-1982,2.09375,0.0,235200,2.125,2.109375,0.711683988571167
10-05-1982,2.09375,0.0,78400,2.125,2.101562976837158,0.7090477347373962
11-05-1982,2.101562976837158,0.0,164800,2.140625,2.132812976837158,0.7195917963981628
12-05-1982,2.117187976837158,0.0,316800,2.171875,2.140625,0.7222269773483276
13-05-1982,2.0625,0.0,2137600,2.148437976837158,2.078125,0.7011401653289795
14-05-1982,2.0625,0.0,3348800,2.109375,2.109375,0.711683988571167
17-05-1982,2.09375,0.0,280000,2.125,2.109375,0.711683988571167
18-05-1982,2.101562976837158,0.0,369600,2.125,2.109375,0.711683988571167
19-05-1982,2.109375,0.0,539200,2.15625,2.125,0.7169551253318787
20-05-1982,2.101562976837158,0.0,315200,2.140625,2.140625,0.7222269773483276
21-05-1982,2.09375,0.0,737600,2.140625,2.125,0.7169551253318787
24-05-1982,2.09375,0.0,81600,2.125,2.101562976837158,0.7090477347373962
25-05-1982,2.070312976837158,0.0,195200,2.109375,2.085937976837158,0.7037761807441711
26-05-1982,2.070312976837158,0.0,376000,2.09375,2.070312976837158,0.6985040307044983
27-05-1982,2.015625,0.0,241600,2.070312976837158,2.070312976837158,0.6985040307044983
28-05-1982,2.054687976837158,0.0,100800,2.085937976837158,2.078125,0.7011401653289795
01-06-1982,1.96875,0.0,196800,2.085937976837158,1.984375,0.6695103049278259
02-06-1982,1.984375,0.0,427200,2.03125,2.03125,0.6853248476982117
03-06-1982,2.0,0.0,928000,2.078125,2.015625,0.6800530552864075
04-06-1982,1.921875,0.0,1617600,2.0,1.9375,0.6536948084831238
07-06-1982,1.9140629768371582,0.0,307200,1.953125,1.921875,0.6484227776527405
08-06-1982,1.890625,0.0,337600,1.921875,1.8984379768371582,0.6405153274536133
09-06-1982,1.828125,0.0,2569600,1.890625,1.8359379768371582,0.6194283366203308
10-06-1982,1.8203129768371582,0.0,107200,1.875,1.8671879768371582,0.6299721598625183
11-06-1982,1.8984379768371582,0.0,646400,1.9140629768371582,1.9140629768371582,0.6457871198654175
14-06-1982,1.890625,0.0,726400,1.921875,1.921875,0.6484227776527405
15-06-1982,1.890625,0.0,846400,1.921875,1.921875,0.6484227776527405
16-06-1982,1.921875,0.0,409600,1.9453129768371582,1.9375,0.6536948084831238
17-06-1982,1.90625,0.0,161600,1.9296879768371582,1.9296879768371582,0.6510584354400635
18-06-1982,1.90625,0.0,121600,1.9453129768371582,1.921875,0.6484227776527405
21-06-1982,1.8828129768371582,0.0,140800,1.921875,1.8984379768371582,0.6405153274536133
22-06-1982,1.8828129768371582,0.0,100800,1.90625,1.90625,0.643151044845581
23-06-1982,1.9140629768371582,0.0,182400,1.9609379768371582,1.953125,0.6589661836624146
24-06-1982,1.953125,0.0,635200,1.9921879768371582,1.9609379768371582,0.6616025567054749
25-06-1982,1.9453129768371582,0.0,168000,1.984375,1.9765629768371582,0.6668738722801208
28-06-1982,1.984375,0.0,752000,2.023437976837158,2.0,0.6747816205024719
29-06-1982,2.0,0.0,566400,2.09375,2.09375,0.7064112424850464
30-06-1982,2.03125,0.0,728000,2.085937976837158,2.078125,0.7011401653289795
01-07-1982,2.0625,0.0,1262400,2.085937976837158,2.085937976837158,0.7037761807441711
02-07-1982,2.070312976837158,0.0,228800,2.078125,2.078125,0.7011401653289795
06-07-1982,2.046875,0.0,910400,2.085937976837158,2.046875,0.6905961036682129
07-07-1982,2.0,0.0,244800,2.0625,2.0,0.6747816205024719
08-07-1982,2.0,0.0,256000,2.046875,2.039062976837158,0.6879607439041138
09-07-1982,2.039062976837158,0.0,971200,2.0625,2.0625,0.695868730545044
12-07-1982,2.046875,0.0,321600,2.09375,2.0625,0.695868730545044
13-07-1982,2.046875,0.0,1595200,2.070312976837158,2.046875,0.6905961036682129
14-07-1982,2.0,0.0,80000,2.03125,2.015625,0.6800530552864075
15-07-1982,2.0,0.0,219200,2.046875,2.03125,0.6853248476982117
16-07-1982,2.0,0.0,1366400,2.03125,2.023437976837158,0.6826896071434021
19-07-1982,2.03125,0.0,1960000,2.0625,2.046875,0.6905961036682129
20-07-1982,2.046875,0.0,907200,2.09375,2.085937976837158,0.7037761807441711
21-07-1982,2.09375,0.0,1259200,2.179687976837158,2.171875,0.7327706813812256
22-07-1982,2.164062976837158,0.0,206400,2.21875,2.203125,0.7433139085769653
23-07-1982,2.171875,0.0,185600,2.226562976837158,2.1875,0.7380427122116089
26-07-1982,2.1875,0.0,324800,2.242187976837158,2.242187976837158,0.756493330001831
27-07-1982,2.210937976837158,0.0,184000,2.226562976837158,2.226562976837158,0.7512214779853821
28-07-1982,2.132812976837158,0.0,358400,2.21875,2.140625,0.7222269773483276
29-07-1982,2.109375,0.0,401600,2.203125,2.203125,0.7433139085769653
30-07-1982,2.195312976837158,0.0,336000,2.226562976837158,2.226562976837158,0.7512214779853821
02-08-1982,2.21875,0.0,564800,2.28125,2.273437976837158,0.7670370936393738
03-08-1982,2.234375,0.0,1036800,2.28125,2.25,0.759128749370575
04-08-1982,2.140625,0.0,4504000,2.203125,2.148437976837158,0.7248628735542297
05-08-1982,2.09375,0.0,241600,2.140625,2.117187976837158,0.71431964635849
06-08-1982,2.03125,0.0,753600,2.117187976837158,2.03125,0.6853248476982117
09-08-1982,2.007812976837158,0.0,225600,2.054687976837158,2.054687976837158,0.6932327151298523
10-08-1982,2.046875,0.0,363200,2.078125,2.078125,0.7011401653289795
11-08-1982,2.070312976837158,0.0,219200,2.085937976837158,2.078125,0.7011401653289795
12-08-1982,2.070312976837158,0.0,756800,2.101562976837158,2.085937976837158,0.7037761807441711
13-08-1982,2.085937976837158,0.0,801600,2.117187976837158,2.109375,0.711683988571167
16-08-1982,2.101562976837158,0.0,670400,2.132812976837158,2.117187976837158,0.71431964635849
17-08-1982,2.125,0.0,614400,2.179687976837158,2.179687976837158,0.7354069352149963
18-08-1982,2.25,0.0,2147200,2.34375,2.296875,0.7749444246292114
19-08-1982,2.28125,0.0,1566400,2.3125,2.3125,0.7802159190177917
20-08-1982,2.328125,0.0,1852800,2.484375,2.4375,0.8223899006843567
23-08-1982,2.414062976837158,0.0,1672000,2.5,2.421875,0.8171177506446838
24-08-1982,2.375,0.0,1491200,2.4375,2.40625,0.8118460774421692
25-08-1982,2.375,0.0,1664000,2.507812976837158,2.4375,0.8223899006843567
26-08-1982,2.40625,0.0,1835200,2.53125,2.445312976837158,0.8250261545181274
27-08-1982,2.375,0.0,1766400,2.453125,2.40625,0.8118460774421692
30-08-1982,2.40625,0.0,1560000,2.515625,2.515625,0.8487483859062195
31-08-1982,2.53125,0.0,1078400,2.59375,2.53125,0.854020357131958
01-09-1982,2.515625,0.0,611200,2.5625,2.515625,0.8487483859062195
02-09-1982,2.390625,0.0,681600,2.523437976837158,2.476562976837158,0.835569441318512
03-09-1982,2.492187976837158,0.0,932800,2.554687976837158,2.539062976837158,0.8566563129425049
07-09-1982,2.53125,0.0,1057600,2.5625,2.546875,0.8592923879623413
08-09-1982,2.53125,0.0,369600,2.554687976837158,2.53125,0.854020357131958
09-09-1982,2.53125,0.0,905600,2.554687976837158,2.53125,0.854020357131958
10-09-1982,2.445312976837158,0.0,1099200,2.53125,2.484375,0.8382054567337036
13-09-1982,2.40625,0.0,2040000,2.492187976837158,2.484375,0.8382054567337036
14-09-1982,2.476562976837158,0.0,827200,2.539062976837158,2.484375,0.8382054567337036
15-09-1982,2.453125,0.0,534400,2.515625,2.515625,0.8487483859062195
16-09-1982,2.460937976837158,0.0,1214400,2.53125,2.492187976837158,0.8408406972885132
17-09-1982,2.445312976837158,0.0,1208000,2.515625,2.46875,0.8329333066940308
20-09-1982,2.4375,0.0,584000,2.492187976837158,2.492187976837158,0.8408406972885132
21-09-1982,2.476562976837158,0.0,1401600,2.515625,2.515625,0.8487483859062195
22-09-1982,2.578125,0.0,2398400,2.617187976837158,2.585937976837158,0.872471272945404
23-09-1982,2.539062976837158,0.0,457600,2.5625,2.5625,0.8645636439323425
24-09-1982,2.53125,0.0,444800,2.5625,2.5625,0.8645636439323425
27-09-1982,2.53125,0.0,627200,2.5625,2.546875,0.8592923879623413
28-09-1982,2.546875,0.0,1088000,2.59375,2.546875,0.8592923879623413
29-09-1982,2.5,0.0,868800,2.5625,2.5,0.8434765934944153
30-09-1982,2.421875,0.0,380800,2.484375,2.460937976837158,0.8302977085113525
01-10-1982,2.445312976837158,0.0,617600,2.5,2.5,0.8434765934944153
04-10-1982,2.476562976837158,0.0,1147200,2.515625,2.507812976837158,0.8461129069328308
05-10-1982,2.5,0.0,1032000,2.53125,2.515625,0.8487483859062195
06-10-1982,2.515625,0.0,1368000,2.570312976837158,2.5625,0.8645636439323425
07-10-1982,2.5625,0.0,841600,2.625,2.609375,0.8803791403770447
08-10-1982,2.578125,0.0,324800,2.609375,2.59375,0.8751068115234375
11-10-1982,2.585937976837158,0.0,542400,2.640625,2.617187976837158,0.8830150961875916
12-10-1982,2.625,0.0,1148800,2.679687976837158,2.679687976837158,0.9041017293930054
13-10-1982,2.671875,0.0,668800,2.84375,2.828125,0.9541832208633423
14-10-1982,2.65625,0.0,795200,2.84375,2.65625,0.8961943984031677
15-10-1982,2.59375,0.0,521600,2.65625,2.632812976837158,0.8882867097854614
18-10-1982,2.648437976837158,0.0,326400,2.734375,2.734375,0.9225523471832275
19-10-1982,2.75,0.0,448000,2.8125,2.804687976837158,0.9462757110595703
20-10-1982,2.8125,0.0,1268800,2.9375,2.875,0.969998836517334
21-10-1982,2.914062976837158,0.0,7321600,3.023437976837158,2.96875,1.0016288757324219
22-10-1982,3.046875,0.0,2614400,3.140625,3.070312976837158,1.0358953475952148
25-10-1982,2.875,0.0,764800,3.0625,2.890625,0.9752696752548218
26-10-1982,2.828125,0.0,988800,2.921875,2.921875,0.9858137369155884
27-10-1982,2.984375,0.0,780800,3.070312976837158,3.070312976837158,1.0358953475952148
28-10-1982,3.054687976837158,0.0,1020800,3.085937976837158,3.0625,1.0332592725753784
29-10-1982,2.96875,0.0,1156800,3.070312976837158,3.007812976837158,1.0148080587387085
01-11-1982,2.945312976837158,0.0,1216000,3.007812976837158,3.0,1.0121718645095825
02-11-1982,2.976562976837158,0.0,1259200,3.039062976837158,3.015625,1.0174427032470703
03-11-1982,3.015625,0.0,1827200,3.179687976837158,3.15625,1.0648890733718872
04-11-1982,3.234375,0.0,2828800,3.351562976837158,3.25,1.0965198278427124
05-11-1982,3.09375,0.0,1425600,3.335937976837158,3.335937976837158,1.1255146265029907
08-11-1982,3.1875,0.0,732800,3.304687976837158,3.273437976837158,1.1044272184371948
09-11-1982,3.21875,0.0,1198400,3.296875,3.21875,1.0859766006469727
10-11-1982,3.21875,0.0,739200,3.273437976837158,3.234375,1.0912480354309082
11-11-1982,3.15625,0.0,705600,3.21875,3.164062976837158,1.067525029182434
12-11-1982,3.164062976837158,0.0,312000,3.203125,3.171875,1.0701615810394287
15-11-1982,3.03125,0.0,1032000,3.171875,3.0625,1.0332592725753784
16-11-1982,3.015625,0.0,918400,3.09375,3.0625,1.0332592725753784
17-11-1982,3.078125,0.0,1840000,3.140625,3.109375,1.0490745306015015
18-11-1982,3.09375,0.0,504000,3.148437976837158,3.140625,1.0596181154251099
19-11-1982,3.109375,0.0,796800,3.1875,3.109375,1.0490745306015015
22-11-1982,3.078125,0.0,769600,3.210937976837158,3.078125,1.038530707359314
23-11-1982,2.921875,0.0,617600,3.125,2.921875,0.9858137369155884
24-11-1982,2.9375,0.0,529600,3.0625,3.039062976837158,1.025352120399475
26-11-1982,3.054687976837158,0.0,344000,3.125,3.109375,1.0490745306015015
29-11-1982,3.117187976837158,0.0,272000,3.171875,3.140625,1.0596181154251099
30-11-1982,3.109375,0.0,496000,3.171875,3.140625,1.0596181154251099
01-12-1982,3.1875,0.0,611200,3.234375,3.203125,1.0807050466537476
02-12-1982,3.203125,0.0,649600,3.28125,3.234375,1.0912480354309082
03-12-1982,3.1875,0.0,412800,3.25,3.21875,1.0859766006469727
06-12-1982,3.21875,0.0,459200,3.265625,3.25,1.0965198278427124
07-12-1982,3.25,0.0,1816000,3.3125,3.265625,1.1017913818359375
08-12-1982,3.21875,0.0,244800,3.28125,3.21875,1.0859766006469727
09-12-1982,3.15625,0.0,126400,3.1875,3.15625,1.0648890733718872
10-12-1982,3.078125,0.0,145600,3.179687976837158,3.09375,1.0438027381896973
13-12-1982,2.984375,0.0,572800,3.0625,3.0,1.0121718645095825
14-12-1982,3.0,0.0,286400,3.078125,3.0,1.0121718645095825
15-12-1982,2.96875,0.0,160000,3.0,2.976562976837158,1.0042650699615479
16-12-1982,2.882812976837158,0.0,1177600,2.96875,2.945312976837158,0.9937207698822021
17-12-1982,3.015625,0.0,291200,3.09375,3.09375,1.0438027381896973
20-12-1982,3.046875,0.0,868800,3.09375,3.078125,1.038530707359314
21-12-1982,3.078125,0.0,160000,3.109375,3.109375,1.0490745306015015
22-12-1982,3.109375,0.0,694400,3.234375,3.234375,1.0912480354309082
23-12-1982,3.265625,0.0,291200,3.3125,3.28125,1.1070637702941895
27-12-1982,3.109375,0.0,803200,3.28125,3.210937976837158,1.083341121673584
28-12-1982,3.203125,0.0,744000,3.328125,3.296875,1.1123353242874146
29-12-1982,3.234375,0.0,473600,3.304687976837158,3.28125,1.1070637702941895
30-12-1982,3.265625,0.0,315200,3.3125,3.265625,1.1017913818359375
31-12-1982,3.210937976837158,0.0,145600,3.25,3.234375,1.0912480354309082
03-01-1983,3.140625,0.0,499200,3.171875,3.15625,1.0648890733718872
04-01-1983,3.140625,0.0,353600,3.21875,3.21875,1.0859766006469727
05-01-1983,3.234375,0.0,515200,3.296875,3.257812976837158,1.099156141281128
06-01-1983,3.265625,0.0,1033600,3.46875,3.421875,1.1545090675354004
07-01-1983,3.421875,0.0,2430400,3.609375,3.570312976837158,1.2045910358428955
10-01-1983,3.46875,0.0,899200,3.539062976837158,3.5,1.1808679103851318
11-01-1983,3.453125,0.0,830400,3.515625,3.5,1.1808679103851318
12-01-1983,3.359375,0.0,593600,3.5,3.359375,1.1334222555160522
13-01-1983,3.265625,0.0,724800,3.390625,3.382812976837158,1.1413298845291138
14-01-1983,3.28125,0.0,454400,3.40625,3.40625,1.1492375135421753
17-01-1983,3.382812976837158,0.0,652800,3.414062976837158,3.390625,1.1439653635025024
18-01-1983,3.375,0.0,288000,3.484375,3.484375,1.1755955219268799
19-01-1983,3.375,0.0,1323200,3.492187976837158,3.453125,1.165051817893982
20-01-1983,3.328125,0.0,425600,3.429687976837158,3.359375,1.1334222555160522
21-01-1983,3.257812976837158,0.0,241600,3.359375,3.28125,1.1070637702941895
24-01-1983,3.15625,0.0,656000,3.242187976837158,3.21875,1.0859766006469727
25-01-1983,3.171875,0.0,332800,3.296875,3.21875,1.0859766006469727
26-01-1983,3.21875,0.0,328000,3.265625,3.234375,1.0912480354309082
27-01-1983,3.265625,0.0,484800,3.40625,3.359375,1.1334222555160522
28-01-1983,3.375,0.0,462400,3.429687976837158,3.40625,1.1492375135421753
31-01-1983,3.40625,0.0,1908800,3.445312976837158,3.429687976837158,1.1571444272994995
01-02-1983,3.375,0.0,1342400,3.453125,3.375,1.1386940479278564
02-02-1983,3.34375,0.0,249600,3.398437976837158,3.375,1.1386940479278564
03-02-1983,3.351562976837158,0.0,200000,3.40625,3.390625,1.1439653635025024
04-02-1983,3.34375,0.0,1100800,3.421875,3.40625,1.1492375135421753
07-02-1983,3.390625,0.0,1614400,3.460937976837158,3.421875,1.1545090675354004
08-02-1983,3.359375,0.0,667200,3.421875,3.375,1.1386940479278564
09-02-1983,3.3125,0.0,299200,3.375,3.367187976837158,1.1360578536987305
10-02-1983,3.375,0.0,784000,3.40625,3.40625,1.1492375135421753
11-02-1983,3.390625,0.0,768000,3.414062976837158,3.40625,1.1492375135421753
14-02-1983,3.390625,0.0,532800,3.40625,3.390625,1.1439653635025024
15-02-1983,3.328125,0.0,1260800,3.390625,3.34375,1.128150463104248
16-02-1983,3.34375,0.0,881600,3.398437976837158,3.375,1.1386940479278564
17-02-1983,3.34375,0.0,2440000,3.421875,3.390625,1.1439653635025024
18-02-1983,3.375,0.0,846400,3.421875,3.375,1.1386940479278564
22-02-1983,3.375,0.0,1120000,3.40625,3.398437976837158,1.1466008424758911
23-02-1983,3.34375,0.0,1406400,3.398437976837158,3.398437976837158,1.1466008424758911
24-02-1983,3.414062976837158,0.0,2683200,3.5625,3.5625,1.2019548416137695
25-02-1983,3.53125,0.0,2368000,3.601562976837158,3.539062976837158,1.1940468549728394
28-02-1983,3.578125,0.0,1920000,3.625,3.617187976837158,1.2204060554504395
01-03-1983,3.625,0.0,1411200,3.703125,3.6875,1.2441284656524658
02-03-1983,3.695312976837158,0.0,1604800,3.75,3.742187976837158,1.2625795602798462
03-03-1983,3.71875,0.0,1451200,3.765625,3.71875,1.2546721696853638
04-03-1983,3.671875,0.0,840000,3.734375,3.703125,1.2493999004364014
07-03-1983,3.703125,0.0,425600,3.734375,3.71875,1.2546721696853638
08-03-1983,3.65625,0.0,1718400,3.734375,3.65625,1.233585238456726
09-03-1983,3.640625,0.0,366400,3.6875,3.671875,1.2388561964035034
10-03-1983,3.6875,0.0,595200,3.726562976837158,3.6875,1.2441284656524658
11-03-1983,3.671875,0.0,548800,3.695312976837158,3.695312976837158,1.2467643022537231
14-03-1983,3.671875,0.0,542400,3.734375,3.726562976837158,1.2573081254959106
15-03-1983,3.695312976837158,0.0,740800,3.726562976837158,3.726562976837158,1.2573081254959106
16-03-1983,3.734375,0.0,1308800,3.757812976837158,3.75,1.2652151584625244
17-03-1983,3.75,0.0,859200,3.828125,3.8125,1.286302089691162
18-03-1983,3.8125,0.0,1619200,4.0,3.984375,1.3442912101745605
21-03-1983,3.875,0.0,937600,3.976562976837158,3.90625,1.317932367324829
22-03-1983,3.90625,0.0,1076800,3.96875,3.9375,1.3284764289855957
23-03-1983,3.921875,0.0,940800,3.960937976837158,3.921875,1.3232051134109497
24-03-1983,3.875,0.0,536000,3.929687976837158,3.890625,1.3126609325408936
25-03-1983,3.859375,0.0,564800,3.898437976837158,3.875,1.3073896169662476
28-03-1983,3.859375,0.0,416000,3.898437976837158,3.890625,1.3126609325408936
29-03-1983,3.859375,0.0,576000,3.890625,3.859375,1.3021167516708374
30-03-1983,3.789062976837158,0.0,403200,3.867187976837158,3.820312976837158,1.2889392375946045
31-03-1983,3.835937976837158,0.0,547200,3.875,3.84375,1.296845555305481
04-04-1983,3.84375,0.0,168000,3.875,3.859375,1.3021167516708374
05-04-1983,3.84375,0.0,947200,3.875,3.859375,1.3021167516708374
06-04-1983,3.8125,3.84375,960000,3.859375,3.84375,1.296845555305481
07-04-1983,3.828125,3.859375,464000,3.859375,3.84375,1.296845555305481
08-04-1983,3.75,3.84375,219200,3.84375,3.765625,1.2704873085021973
11-04-1983,3.75,3.765625,387200,3.796875,3.765625,1.2704873085021973
12-04-1983,3.78125,3.796875,313600,3.828125,3.828125,1.2915740013122559
13-04-1983,3.84375,3.84375,401600,3.90625,3.90625,1.317932367324829
14-04-1983,3.914062976837158,3.9375,316800,3.953125,3.9375,1.3284764289855957
15-04-1983,3.914062976837158,3.953125,286400,3.960937976837158,3.914062976837158,1.3205684423446655
18-04-1983,3.888672113418579,3.914062976837158,337600,3.929687976837158,3.929687976837158,1.3258401155471802
19-04-1983,3.898437976837158,3.929687976837158,494400,3.976562976837158,3.976562976837158,1.3416553735733032
20-04-1983,3.96875,3.976562976837158,198400,3.992187976837158,3.984375,1.3442912101745605
21-04-1983,3.953125,3.984375,465600,4.015625,3.953125,1.3337472677230835
22-04-1983,3.9375,3.960937976837158,182400,4.0,3.953125,1.3337472677230835
25-04-1983,3.90625,3.953125,468800,4.0,3.96875,1.3390206098556519
26-04-1983,3.96875,3.992187976837158,272000,4.015625,4.0,1.3495632410049438
27-04-1983,4.0,4.046875,387200,4.09375,4.023437976837158,1.357470989227295
28-04-1983,4.015625,4.03125,571200,4.046875,4.039062976837158,1.3627429008483887
29-04-1983,4.039062976837158,4.0625,619200,4.085937976837158,4.085937976837158,1.3785572052001953
02-05-1983,4.046875,4.085937976837158,670400,4.117187976837158,4.054687976837158,1.3680142164230347
03-05-1983,4.0,4.023437976837158,428800,4.039062976837158,4.039062976837158,1.3627429008483887
04-05-1983,3.976562976837158,4.007812976837158,451200,4.03125,3.992187976837158,1.3593376874923706
05-05-1983,3.921875,3.96875,740800,4.007812976837158,3.9375,1.3407162427902222
06-05-1983,3.953125,3.953125,803200,4.078125,4.046875,1.377957820892334
09-05-1983,4.0,4.015625,553600,4.0625,4.054687976837158,1.3806195259094238
10-05-1983,4.03125,4.070312976837158,492800,4.070312976837158,4.03125,1.3726381063461304
11-05-1983,4.0,4.039062976837158,252800,4.046875,4.023437976837158,1.3699780702590942
12-05-1983,3.96875,4.023437976837158,396800,4.03125,3.976562976837158,1.3540164232254028
13-05-1983,3.960937976837158,3.992187976837158,225600,3.992187976837158,3.984375,1.3566769361495972
16-05-1983,3.9375,3.96875,356800,4.0,4.0,1.3619968891143799
17-05-1983,3.976562976837158,4.0,288000,4.015625,4.015625,1.3673173189163208
18-05-1983,4.007812976837158,4.007812976837158,825600,4.140625,4.03125,1.3726381063461304
19-05-1983,3.921875,3.984375,1417600,3.984375,3.953125,1.3460367918014526
20-05-1983,3.9375,3.953125,321600,4.007812976837158,4.007812976837158,1.3646577596664429
23-05-1983,4.007812976837158,4.015625,488000,4.0625,4.039062976837158,1.3752983808517456
24-05-1983,4.046875,4.046875,355200,4.117187976837158,4.117187976837158,1.4019005298614502
25-05-1983,4.078125,4.09375,580800,4.117187976837158,4.109375,1.3992393016815186
26-05-1983,4.078125,4.09375,1388800,4.25,4.203125,1.4311614036560059
27-05-1983,4.15625,4.203125,209600,4.203125,4.164062976837158,1.417860984802246
31-05-1983,4.078125,4.164062976837158,601600,4.171875,4.09375,1.3939192295074463
01-06-1983,4.0625,4.0625,488000,4.101562976837158,4.101562976837158,1.3965801000595093
02-06-1983,3.984375,4.109375,366400,4.117187976837158,4.03125,1.3726381063461304
03-06-1983,3.96875,4.015625,1065600,4.046875,4.03125,1.3726381063461304
06-06-1983,4.054687976837158,4.0625,5444800,4.078125,4.070312976837158,1.3859387636184692
07-06-1983,4.03125,4.085937976837158,457600,4.085937976837158,4.046875,1.377957820892334
08-06-1983,4.007812976837158,4.046875,444800,4.054687976837158,4.007812976837158,1.3646577596664429
09-06-1983,3.984375,4.015625,427200,4.023437976837158,4.007812976837158,1.3646577596664429
10-06-1983,4.015625,4.023437976837158,1878400,4.0625,4.0625,1.3832788467407227
13-06-1983,4.0625,4.0625,1062400,4.09375,4.078125,1.3885992765426636
14-06-1983,4.078125,4.078125,272000,4.109375,4.109375,1.3992393016815186
15-06-1983,4.101562976837158,4.109375,592000,4.125,4.117187976837158,1.4019005298614502
16-06-1983,4.125,4.125,628800,4.15625,4.15625,1.41520094871521
17-06-1983,4.125,4.15625,1081600,4.164062976837158,4.125,1.4045604467391968
20-06-1983,4.101562976837158,4.109375,222400,4.140625,4.117187976837158,1.4019005298614502
21-06-1983,4.046875,4.101562976837158,340800,4.117187976837158,4.09375,1.3939192295074463
22-06-1983,4.0625,4.085937976837158,435200,4.109375,4.09375,1.3939192295074463
23-06-1983,4.070312976837158,4.09375,145600,4.109375,4.070312976837158,1.3859387636184692
24-06-1983,4.0625,4.070312976837158,212800,4.09375,4.09375,1.3939192295074463
27-06-1983,4.0625,4.070312976837158,609600,4.085937976837158,4.078125,1.3885992765426636
28-06-1983,4.046875,4.09375,428800,4.109375,4.046875,1.377957820892334
29-06-1983,3.9375,4.039062976837158,1552000,4.039062976837158,3.9375,1.3407162427902222
30-06-1983,3.921875,3.9375,534400,3.984375,3.96875,1.3513566255569458
01-07-1983,3.953125,3.953125,947200,4.023437976837158,4.023437976837158,1.3699780702590942
05-07-1983,3.96875,4.007812976837158,155200,4.007812976837158,3.992187976837158,1.3593376874923706
06-07-1983,3.9375,3.96875,217600,3.992187976837158,3.984375,1.3566769361495972
07-07-1983,3.921875,3.984375,452800,3.984375,3.96875,1.3513566255569458
08-07-1983,3.960937976837158,3.96875,152000,3.984375,3.984375,1.3566769361495972
11-07-1983,3.976562976837158,3.984375,395200,3.992187976837158,3.976562976837158,1.3540164232254028
12-07-1983,3.90625,3.976562976837158,569600,3.976562976837158,3.90625,1.3300752639770508
13-07-1983,3.859375,3.890625,291200,3.921875,3.867187976837158,1.3167742490768433
14-07-1983,3.875,3.90625,419200,3.9375,3.898437976837158,1.3274160623550415
15-07-1983,3.8125,3.90625,329600,3.914062976837158,3.828125,1.3034751415252686
18-07-1983,3.78125,3.804687976837158,827200,3.828125,3.8125,1.2981535196304321
19-07-1983,3.796875,3.804687976837158,497600,3.820312976837158,3.8125,1.2981535196304321
20-07-1983,3.8125,3.8125,633600,3.875,3.875,1.3194355964660645
21-07-1983,4.0,4.03125,681600,4.03125,4.0,1.3619968891143799
22-07-1983,4.015625,4.070312976837158,747200,4.125,4.125,1.4045604467391968
25-07-1983,4.148437976837158,4.148437976837158,441600,4.210937976837158,4.210937976837158,1.433821439743042
26-07-1983,4.21875,4.21875,814400,4.3125,4.3125,1.468403935432434
27-07-1983,4.1875,4.3125,531200,4.3125,4.195312976837158,1.4285014867782593
28-07-1983,4.0625,4.203125,384000,4.210937976837158,4.085937976837158,1.3912594318389893
29-07-1983,3.953125,4.03125,771200,4.054687976837158,3.992187976837158,1.3593376874923706
01-08-1983,3.867187976837158,3.90625,1000000,3.921875,3.914062976837158,1.3327363729476929
02-08-1983,3.90625,3.9375,254400,3.953125,3.914062976837158,1.3327363729476929
03-08-1983,3.84375,3.890625,656000,3.90625,3.875,1.3194355964660645
04-08-1983,3.65625,3.796875,812800,3.84375,3.710937976837158,1.2767508029937744
05-08-1983,3.6875,3.6875,881600,3.757812976837158,3.734375,1.2848142385482788
08-08-1983,3.703125,3.703125,472000,3.828125,3.734375,1.2848142385482788
09-08-1983,3.65625,3.765625,2072000,3.765625,3.671875,1.2633119821548462
10-08-1983,3.5,3.640625,1752000,3.640625,3.53125,1.2149301767349243
11-08-1983,3.5,3.53125,923200,3.609375,3.5625,1.2256808280944824
12-08-1983,3.578125,3.59375,320000,3.65625,3.632812976837158,1.2498723268508911
15-08-1983,3.664062976837158,3.664062976837158,304000,3.765625,3.75,1.290190577507019
16-08-1983,3.632812976837158,3.75,900800,3.75,3.671875,1.2633119821548462
17-08-1983,3.65625,3.65625,868800,3.75,3.734375,1.2848142385482788
18-08-1983,3.703125,3.765625,305600,3.796875,3.710937976837158,1.2767508029937744
19-08-1983,3.703125,3.71875,187200,3.742187976837158,3.734375,1.2848142385482788
22-08-1983,3.734375,3.742187976837158,1060800,3.8125,3.742187976837158,1.2875021696090698
23-08-1983,3.75,3.773437976837158,288000,3.8125,3.789062976837158,1.3036298751831055
24-08-1983,3.726562976837158,3.765625,225600,3.765625,3.734375,1.2848142385482788
25-08-1983,3.710937976837158,3.71875,550400,3.8125,3.804687976837158,1.3090057373046875
26-08-1983,3.8125,3.8125,433600,3.90625,3.90625,1.3439486026763916
29-08-1983,3.882812976837158,3.921875,259200,3.960937976837158,3.945312976837158,1.3573880195617676
30-08-1983,3.953125,3.953125,1729600,4.070312976837158,4.0,1.3762035369873047
31-08-1983,3.96875,3.96875,924800,3.984375,3.984375,1.370828628540039
01-09-1983,3.96875,3.96875,502400,4.0625,4.046875,1.3923299312591553
02-09-1983,4.046875,4.0625,310400,4.125,4.125,1.4192101955413818
06-09-1983,4.15625,4.171875,457600,4.203125,4.1875,1.440712332725525
07-09-1983,4.21875,4.21875,1228800,4.335937976837158,4.335937976837158,1.4917834997177124
08-09-1983,4.320312976837158,4.34375,628800,4.375,4.359375,1.4998469352722168
09-09-1983,4.28125,4.359375,2353600,4.375,4.28125,1.4729676246643066
12-09-1983,4.25,4.296875,604800,4.375,4.257812976837158,1.4649035930633545
13-09-1983,4.125,4.265625,381600,4.265625,4.1875,1.440712332725525
14-09-1983,4.15625,4.21875,126400,4.21875,4.203125,1.4460885524749756
15-09-1983,4.1875,4.203125,356800,4.21875,4.21875,1.4514644145965576
16-09-1983,4.0625,4.1875,581600,4.1875,4.09375,1.4084577560424805
19-09-1983,4.09375,4.125,172800,4.21875,4.171875,1.4353365898132324
20-09-1983,4.140625,4.140625,395200,4.25,4.25,1.4622161388397217
21-09-1983,4.203125,4.25,999200,4.46875,4.46875,1.5374764204025269
22-09-1983,4.375,4.46875,1304000,4.46875,4.4375,1.5267255306243896
23-09-1983,4.40625,4.421875,452800,4.546875,4.546875,1.5643552541732788
26-09-1983,4.46875,4.546875,338400,4.578125,4.484375,1.5428539514541626
27-09-1983,4.4375,4.5,402400,4.53125,4.5,1.54822838306427
28-09-1983,4.453125,4.46875,150400,4.53125,4.453125,1.532102108001709
29-09-1983,4.34375,4.4375,211200,4.5,4.34375,1.4944705963134766
30-09-1983,4.09375,4.28125,1076800,4.28125,4.109375,1.4138344526290894
03-10-1983,4.015625,4.109375,313600,4.109375,4.109375,1.4138344526290894
04-10-1983,4.078125,4.078125,366400,4.265625,4.234375,1.4568403959274292
05-10-1983,4.15625,4.1875,376000,4.25,4.25,1.4622161388397217
06-10-1983,4.21875,4.25,899200,4.390625,4.34375,1.4944705963134766
07-10-1983,4.5625,4.5625,759200,4.625,4.609375,1.585858941078186
10-10-1983,4.515625,4.5625,546400,4.5625,4.515625,1.5536046028137207
11-10-1983,4.5,4.5625,453600,4.59375,4.5,1.54822838306427
12-10-1983,4.46875,4.5,406400,4.578125,4.5625,1.569732427597046
13-10-1983,4.5625,4.625,558400,4.65625,4.578125,1.5751079320907593
14-10-1983,4.515625,4.5625,148000,4.609375,4.546875,1.5643552541732788
17-10-1983,4.375,4.53125,324000,4.53125,4.40625,1.5159741640090942
18-10-1983,4.375,4.515625,324000,4.53125,4.40625,1.5159741640090942
19-10-1983,4.375,4.421875,2216000,4.5625,4.40625,1.5159741640090942
20-10-1983,4.40625,4.4375,604800,4.53125,4.46875,1.5374764204025269
21-10-1983,4.453125,4.453125,1336000,4.5625,4.53125,1.558980107307434
24-10-1983,4.5,4.53125,313600,4.578125,4.5625,1.569732427597046
25-10-1983,4.53125,4.5625,668800,4.59375,4.546875,1.5643552541732788
26-10-1983,4.453125,4.546875,351200,4.578125,4.515625,1.5536046028137207
27-10-1983,4.484375,4.5,41600,4.5625,4.484375,1.5428539514541626
28-10-1983,4.484375,4.484375,607200,4.53125,4.5,1.54822838306427
31-10-1983,4.515625,4.53125,478400,4.59375,4.5625,1.569732427597046
01-11-1983,4.4375,4.578125,793600,4.578125,4.46875,1.5374764204025269
02-11-1983,4.453125,4.46875,877600,4.5625,4.546875,1.5643552541732788
03-11-1983,4.453125,4.53125,236000,4.53125,4.46875,1.5511229038238525
04-11-1983,4.34375,4.375,336800,4.453125,4.34375,1.507734775543213
07-11-1983,4.25,4.375,408000,4.40625,4.28125,1.4860411882400513
08-11-1983,4.203125,4.28125,435200,4.28125,4.203125,1.458923578262329
09-11-1983,4.203125,4.234375,176800,4.28125,4.25,1.4751931428909302
10-11-1983,4.1875,4.25,495200,4.28125,4.203125,1.458923578262329
11-11-1983,4.21875,4.234375,1606400,4.3125,4.3125,1.4968883991241455
14-11-1983,4.328125,4.328125,616000,4.4375,4.375,1.518581509590149
15-11-1983,4.34375,4.359375,920800,4.390625,4.34375,1.507734775543213
16-11-1983,4.296875,4.3125,454400,4.40625,4.40625,1.5294296741485596
17-11-1983,4.359375,4.359375,792000,4.421875,4.390625,1.52400541305542
18-11-1983,4.328125,4.359375,531200,4.390625,4.390625,1.52400541305542
21-11-1983,4.375,4.421875,281600,4.4375,4.40625,1.5294296741485596
22-11-1983,4.40625,4.4375,636800,4.5625,4.53125,1.572817325592041
23-11-1983,4.546875,4.546875,619200,4.65625,4.578125,1.5890872478485107
25-11-1983,4.59375,4.625,273600,4.625,4.59375,1.5945109128952026
28-11-1983,4.53125,4.59375,770400,4.625,4.5625,1.5836645364761353
29-11-1983,4.4375,4.5625,1019200,4.5625,4.4375,1.540276050567627
30-11-1983,4.46875,4.5,844000,4.546875,4.515625,1.56739342212677
01-12-1983,4.484375,4.484375,309600,4.546875,4.5,1.5619698762893677
02-12-1983,4.46875,4.46875,124800,4.5625,4.546875,1.5782397985458374
05-12-1983,4.4375,4.515625,754400,4.515625,4.5,1.5619698762893677
06-12-1983,4.46875,4.515625,184000,4.515625,4.46875,1.5511229038238525
07-12-1983,4.4375,4.4375,735200,4.5,4.4375,1.540276050567627
08-12-1983,4.40625,4.46875,628800,4.46875,4.4375,1.540276050567627
09-12-1983,4.40625,4.40625,500000,4.453125,4.4375,1.540276050567627
12-12-1983,4.390625,4.390625,120000,4.4375,4.390625,1.52400541305542
13-12-1983,4.375,4.40625,100000,4.453125,4.40625,1.5294296741485596
14-12-1983,4.34375,4.375,1194400,4.40625,4.34375,1.507734775543213
15-12-1983,4.25,4.25,192800,4.3125,4.265625,1.4806170463562012
16-12-1983,4.1875,4.265625,640800,4.28125,4.234375,1.4697706699371338
19-12-1983,4.203125,4.203125,1264000,4.375,4.296875,1.4914644956588745
20-12-1983,4.28125,4.28125,405600,4.375,4.296875,1.4914644956588745
21-12-1983,4.21875,4.296875,792800,4.3125,4.3125,1.4968883991241455
22-12-1983,4.25,4.3125,403200,4.34375,4.25,1.4751931428909302
23-12-1983,4.203125,4.203125,127200,4.25,4.21875,1.464346170425415
27-12-1983,4.234375,4.234375,384800,4.328125,4.328125,1.5023115873336792
28-12-1983,4.25,4.3125,1399200,4.328125,4.296875,1.4914644956588745
29-12-1983,4.296875,4.3125,188800,4.4375,4.4375,1.540276050567627
30-12-1983,4.34375,4.46875,563200,4.46875,4.359375,1.5131586790084839
03-01-1984,4.328125,4.328125,460000,4.453125,4.34375,1.507734775543213
04-01-1984,4.3125,4.328125,1320800,4.375,4.34375,1.507734775543213
05-01-1984,4.34375,4.375,1296000,4.609375,4.5625,1.5836645364761353
06-01-1984,4.53125,4.59375,693600,4.625,4.59375,1.5945109128952026
09-01-1984,4.578125,4.59375,900800,4.75,4.671875,1.6216281652450562
10-01-1984,4.578125,4.703125,532000,4.71875,4.578125,1.5890872478485107
11-01-1984,4.5,4.5625,502400,4.609375,4.578125,1.5890872478485107
12-01-1984,4.46875,4.53125,204000,4.5625,4.5,1.5619698762893677
13-01-1984,4.3125,4.4375,294400,4.4375,4.375,1.518581509590149
16-01-1984,4.3125,4.34375,391200,4.421875,4.421875,1.5348519086837769
17-01-1984,4.375,4.421875,351200,4.4375,4.421875,1.5348519086837769
18-01-1984,4.34375,4.421875,552800,4.4375,4.375,1.518581509590149
19-01-1984,4.40625,4.40625,529600,4.46875,4.4375,1.540276050567627
20-01-1984,4.453125,4.484375,268000,4.484375,4.453125,1.545699119567871
23-01-1984,4.296875,4.4375,2306400,4.4375,4.296875,1.4914644956588745
24-01-1984,4.21875,4.296875,504800,4.328125,4.21875,1.464346170425415
25-01-1984,4.1875,4.25,560800,4.296875,4.21875,1.464346170425415
26-01-1984,4.0625,4.15625,846400,4.1875,4.15625,1.4426531791687012
27-01-1984,4.09375,4.125,588800,4.1875,4.125,1.4318052530288696
30-01-1984,3.96875,4.078125,643200,4.078125,4.0,1.3884178400039673
31-01-1984,3.96875,4.0,533600,4.09375,4.0,1.3884178400039673
01-02-1984,3.8125,4.0,642400,4.0625,3.96875,1.3775712251663208
02-02-1984,3.859375,3.921875,502400,3.953125,3.875,1.3450291156768799
03-02-1984,3.90625,3.90625,748800,4.0,3.9375,1.3667234182357788
06-02-1984,3.859375,3.890625,1136800,3.96875,3.9375,1.3667234182357788
07-02-1984,3.875,3.921875,891200,3.953125,3.953125,1.372146487236023
08-02-1984,3.921875,4.03125,405600,4.0625,3.9375,1.3667234182357788
09-02-1984,3.8125,3.921875,765600,3.96875,3.84375,1.3341822624206543
10-02-1984,3.71875,3.84375,756000,3.875,3.78125,1.312488079071045
13-02-1984,3.71875,3.796875,352000,3.796875,3.765625,1.3070646524429321
14-02-1984,3.625,3.78125,989600,3.78125,3.75,1.3156163692474365
15-02-1984,3.59375,3.75,422400,3.75,3.625,1.2717626094818115
16-02-1984,3.546875,3.671875,396800,3.6875,3.625,1.2717626094818115
17-02-1984,3.421875,3.625,993600,3.640625,3.46875,1.2169444561004639
21-02-1984,3.4375,3.484375,616000,3.5,3.484375,1.222426414489746
22-02-1984,3.4375,3.484375,3064800,3.609375,3.578125,1.2553174495697021
23-02-1984,3.4375,3.578125,684000,3.578125,3.546875,1.2443536520004272
24-02-1984,3.53125,3.5625,696000,3.625,3.59375,1.2607988119125366
27-02-1984,3.640625,3.671875,732800,3.8125,3.78125,1.3265793323516846
28-02-1984,3.625,3.78125,644800,3.78125,3.65625,1.2827255725860596
29-02-1984,3.65625,3.65625,277600,3.796875,3.734375,1.310133934020996
01-03-1984,3.6875,3.75,355200,3.8125,3.78125,1.3265793323516846
02-03-1984,3.6875,3.75,1381600,3.8125,3.78125,1.3265793323516846
05-03-1984,3.71875,3.8125,566400,3.90625,3.71875,1.3046528100967407
06-03-1984,3.71875,3.75,408800,3.8125,3.765625,1.3210978507995605
07-03-1984,3.6875,3.71875,195200,3.8125,3.75,1.3156163692474365
08-03-1984,3.65625,3.734375,291200,3.765625,3.71875,1.3046528100967407
09-03-1984,3.65625,3.75,484000,3.75,3.65625,1.2827255725860596
12-03-1984,3.671875,3.671875,291200,3.796875,3.75,1.3156163692474365
13-03-1984,3.78125,3.78125,470400,3.875,3.8125,1.3375424146652222
14-03-1984,3.78125,3.8125,1076000,3.859375,3.8125,1.3375424146652222
15-03-1984,3.78125,3.8125,289600,3.859375,3.8125,1.3375424146652222
16-03-1984,3.890625,3.90625,772000,3.9375,3.921875,1.3759158849716187
19-03-1984,3.8125,3.890625,313600,3.890625,3.859375,1.353988528251648
20-03-1984,3.796875,3.828125,220800,3.859375,3.859375,1.353988528251648
21-03-1984,3.828125,3.828125,252800,3.9375,3.875,1.359470248222351
22-03-1984,3.78125,3.90625,209600,3.90625,3.828125,1.3430253267288208
23-03-1984,3.75,3.8125,304800,3.84375,3.78125,1.3265793323516846
26-03-1984,3.75,3.78125,122400,3.8125,3.796875,1.3320610523223877
27-03-1984,3.75,3.765625,103200,3.8125,3.796875,1.3320610523223877
28-03-1984,3.78125,3.796875,248800,3.828125,3.8125,1.3375424146652222
29-03-1984,3.765625,3.828125,260800,3.828125,3.796875,1.3320610523223877
30-03-1984,3.71875,3.796875,354400,3.8125,3.796875,1.3320610523223877
02-04-1984,3.640625,3.765625,433600,3.796875,3.640625,1.277244210243225
03-04-1984,3.625,3.640625,559200,3.71875,3.6875,1.2936893701553345
04-04-1984,3.65625,3.65625,249600,3.71875,3.703125,1.2991708517074585
05-04-1984,3.65625,3.703125,140800,3.71875,3.703125,1.2991708517074585
06-04-1984,3.640625,3.671875,188000,3.6875,3.65625,1.2827255725860596
09-04-1984,3.5,3.6875,860800,3.71875,3.515625,1.233390212059021
10-04-1984,3.453125,3.5,480800,3.53125,3.453125,1.2114633321762085
11-04-1984,3.390625,3.4375,2084800,3.453125,3.4375,1.2059818506240845
12-04-1984,3.484375,3.484375,885600,3.578125,3.546875,1.2443536520004272
13-04-1984,3.4375,3.578125,2246400,3.59375,3.484375,1.222426414489746
16-04-1984,3.421875,3.5,888800,3.5,3.46875,1.2169444561004639
17-04-1984,3.484375,3.5,1244800,3.546875,3.5,1.227908730506897
18-04-1984,3.5,3.515625,1323200,3.53125,3.515625,1.233390212059021
19-04-1984,3.5,3.53125,290400,3.578125,3.5625,1.2498362064361572
23-04-1984,3.546875,3.59375,242400,3.609375,3.5625,1.2498362064361572
24-04-1984,3.484375,3.53125,612800,3.609375,3.5,1.227908730506897
25-04-1984,3.515625,3.53125,840800,3.59375,3.5625,1.2498362064361572
26-04-1984,3.59375,3.59375,1172800,3.75,3.703125,1.2991708517074585
27-04-1984,3.703125,3.734375,596800,3.8125,3.75,1.3156163692474365
30-04-1984,3.703125,3.75,315200,3.796875,3.78125,1.3265793323516846
01-05-1984,3.78125,3.796875,473600,3.84375,3.84375,1.3485066890716553
02-05-1984,3.78125,3.859375,392800,3.875,3.859375,1.353988528251648
03-05-1984,3.78125,3.890625,353600,3.890625,3.828125,1.3430253267288208
04-05-1984,3.59375,3.78125,682400,3.796875,3.65625,1.2979834079742432
07-05-1984,3.65625,3.71875,988000,3.75,3.75,1.3312656879425049
08-05-1984,3.71875,3.75,811200,3.828125,3.8125,1.3534525632858276
09-05-1984,3.765625,3.8125,752000,3.875,3.78125,1.3423590660095215
10-05-1984,3.734375,3.78125,208800,3.78125,3.78125,1.3423590660095215
11-05-1984,3.5625,3.78125,575200,3.78125,3.703125,1.3146246671676636
14-05-1984,3.578125,3.71875,273600,3.71875,3.625,1.2868901491165161
15-05-1984,3.5625,3.625,702400,3.640625,3.578125,1.2702494859695435
16-05-1984,3.453125,3.5625,1334400,3.5625,3.5625,1.2647027969360352
17-05-1984,3.46875,3.53125,1342400,3.5625,3.46875,1.2314198017120361
18-05-1984,3.40625,3.453125,908800,3.5,3.421875,1.214780330657959
21-05-1984,3.390625,3.40625,536800,3.46875,3.421875,1.214780330657959
22-05-1984,3.28125,3.421875,1011200,3.421875,3.34375,1.1870454549789429
23-05-1984,3.34375,3.359375,583200,3.421875,3.390625,1.2036856412887573
24-05-1984,3.296875,3.375,1495200,3.40625,3.34375,1.1870454549789429
25-05-1984,3.28125,3.375,728000,3.40625,3.3125,1.1759519577026367
29-05-1984,3.1875,3.34375,768000,3.359375,3.25,1.1537643671035767
30-05-1984,3.125,3.28125,3813600,3.28125,3.15625,1.1204819679260254
31-05-1984,3.09375,3.109375,1299200,3.171875,3.125,1.109389066696167
01-06-1984,3.171875,3.1875,1281600,3.234375,3.203125,1.1371229887008667
04-06-1984,3.21875,3.21875,2139200,3.46875,3.375,1.1981390714645386
05-06-1984,3.28125,3.40625,825600,3.40625,3.34375,1.1870454549789429
06-06-1984,3.40625,3.40625,440000,3.46875,3.46875,1.2314198017120361
07-06-1984,3.46875,3.46875,6442400,3.515625,3.515625,1.2480614185333252
08-06-1984,3.484375,3.53125,396800,3.546875,3.53125,1.2536084651947021
11-06-1984,3.515625,3.5625,323200,3.5625,3.53125,1.2536084651947021
12-06-1984,3.453125,3.484375,284000,3.5,3.5,1.242514729499817
13-06-1984,3.484375,3.5,260800,3.53125,3.515625,1.2480614185333252
14-06-1984,3.421875,3.5,861600,3.515625,3.453125,1.2258737087249756
15-06-1984,3.375,3.453125,334400,3.484375,3.40625,1.2092325687408447
18-06-1984,3.375,3.375,472000,3.484375,3.46875,1.2314198017120361
19-06-1984,3.4375,3.5,385600,3.5,3.484375,1.2369672060012817
20-06-1984,3.375,3.453125,2826400,3.46875,3.46875,1.2314198017120361
21-06-1984,3.421875,3.46875,983200,3.46875,3.453125,1.2258737087249756
22-06-1984,3.390625,3.453125,839200,3.453125,3.453125,1.2258737087249756
25-06-1984,3.453125,3.484375,1771200,3.515625,3.46875,1.2314198017120361
26-06-1984,3.46875,3.5,2021600,3.546875,3.46875,1.2314198017120361
27-06-1984,3.375,3.4375,542400,3.46875,3.4375,1.2203267812728882
28-06-1984,3.390625,3.4375,572000,3.4375,3.4375,1.2203267812728882
29-06-1984,3.4375,3.4375,1027200,3.484375,3.484375,1.2369672060012817
02-07-1984,3.453125,3.53125,511200,3.53125,3.484375,1.2369672060012817
03-07-1984,3.46875,3.5,676000,3.59375,3.5625,1.2647027969360352
05-07-1984,3.5,3.5625,293600,3.578125,3.546875,1.2591556310653687
06-07-1984,3.484375,3.53125,331200,3.65625,3.546875,1.2591556310653687
09-07-1984,3.578125,3.59375,264000,3.625,3.625,1.2868901491165161
10-07-1984,3.65625,3.65625,552800,3.78125,3.71875,1.3201720714569092
11-07-1984,3.65625,3.71875,184000,3.75,3.6875,1.309077501296997
12-07-1984,3.5625,3.625,382400,3.6875,3.625,1.2868901491165161
13-07-1984,3.546875,3.65625,687200,3.6875,3.609375,1.2813435792922974
16-07-1984,3.546875,3.609375,436000,3.65625,3.625,1.2868901491165161
17-07-1984,3.609375,3.625,928800,3.6875,3.65625,1.2979834079742432
18-07-1984,3.53125,3.65625,272800,3.65625,3.625,1.2868901491165161
19-07-1984,3.46875,3.625,314400,3.625,3.5,1.242514729499817
20-07-1984,3.53125,3.53125,136000,3.625,3.59375,1.2757959365844727
23-07-1984,3.53125,3.59375,532000,3.59375,3.546875,1.2591556310653687
24-07-1984,3.53125,3.546875,476800,3.59375,3.546875,1.2591556310653687
25-07-1984,3.515625,3.546875,224800,3.578125,3.546875,1.2591556310653687
26-07-1984,3.5,3.578125,936800,3.578125,3.53125,1.2536084651947021
27-07-1984,3.46875,3.5,457600,3.625,3.53125,1.2536084651947021
30-07-1984,3.46875,3.546875,628000,3.609375,3.5,1.242514729499817
31-07-1984,3.40625,3.484375,531200,3.53125,3.453125,1.2258737087249756
01-08-1984,3.484375,3.484375,1785600,3.734375,3.625,1.2868901491165161
02-08-1984,3.625,3.625,1441600,3.75,3.75,1.3312656879425049
03-08-1984,3.828125,3.875,1789600,3.9375,3.875,1.3756412267684937
06-08-1984,3.8125,3.859375,2960800,3.9375,3.9375,1.414252758026123
07-08-1984,3.890625,3.90625,716000,4.046875,3.984375,1.4310888051986694
08-08-1984,3.9375,3.984375,592000,4.0,3.9375,1.414252758026123
09-08-1984,3.875,3.9375,1179200,4.125,4.109375,1.4759862422943115
10-08-1984,4.09375,4.09375,1677600,4.234375,4.1875,1.504046082496643
13-08-1984,4.0625,4.15625,1063200,4.1875,4.078125,1.4647613763809204
14-08-1984,4.09375,4.15625,637600,4.15625,4.09375,1.4703737497329712
15-08-1984,3.96875,4.03125,536000,4.109375,4.078125,1.4647613763809204
16-08-1984,4.046875,4.046875,495200,4.15625,4.09375,1.4703737497329712
17-08-1984,4.09375,4.125,474400,4.15625,4.109375,1.4759862422943115
20-08-1984,4.09375,4.09375,893600,4.1875,4.1875,1.504046082496643
21-08-1984,4.15625,4.21875,700000,4.28125,4.234375,1.5208826065063477
22-08-1984,4.125,4.234375,1062400,4.234375,4.21875,1.5152697563171387
23-08-1984,4.171875,4.1875,199200,4.21875,4.1875,1.504046082496643
24-08-1984,4.1875,4.1875,376800,4.3125,4.296875,1.5433318614959717
27-08-1984,4.21875,4.3125,188800,4.3125,4.28125,1.5377192497253418
28-08-1984,4.21875,4.25,974400,4.296875,4.234375,1.5208826065063477
29-08-1984,4.171875,4.25,725600,4.28125,4.1875,1.504046082496643
30-08-1984,4.140625,4.15625,276000,4.203125,4.15625,1.4928224086761475
31-08-1984,4.09375,4.125,365600,4.1875,4.1875,1.504046082496643
04-09-1984,4.140625,4.15625,382400,4.171875,4.171875,1.4984335899353027
05-09-1984,4.078125,4.140625,368000,4.171875,4.140625,1.487209439277649
06-09-1984,4.171875,4.171875,220000,4.203125,4.1875,1.504046082496643
07-09-1984,4.15625,4.234375,332000,4.25,4.1875,1.504046082496643
10-09-1984,4.140625,4.15625,212800,4.21875,4.1875,1.504046082496643
11-09-1984,4.21875,4.21875,533600,4.28125,4.25,1.5264946222305298
12-09-1984,4.1875,4.21875,748800,4.25,4.21875,1.5152697563171387
13-09-1984,4.1875,4.1875,1043200,4.34375,4.34375,1.560167908668518
14-09-1984,4.296875,4.359375,648800,4.375,4.34375,1.560167908668518
17-09-1984,4.3125,4.3125,676800,4.40625,4.40625,1.5826166868209839
18-09-1984,4.40625,4.421875,744800,4.484375,4.484375,1.6106771230697632
19-09-1984,4.421875,4.453125,767200,4.515625,4.4375,1.5938396453857422
20-09-1984,4.40625,4.40625,536800,4.484375,4.46875,1.6050636768341064
21-09-1984,4.4375,4.4375,721600,4.484375,4.4375,1.5938396453857422
24-09-1984,4.40625,4.421875,444000,4.484375,4.46875,1.6050636768341064
25-09-1984,4.375,4.453125,1692000,4.453125,4.421875,1.5882278680801392
26-09-1984,4.359375,4.40625,603200,4.46875,4.359375,1.5657798051834106
27-09-1984,4.28125,4.390625,757600,4.40625,4.375,1.5713918209075928
28-09-1984,4.15625,4.265625,817600,4.265625,4.21875,1.5152697563171387
01-10-1984,4.171875,4.1875,296800,4.25,4.21875,1.5152697563171387
02-10-1984,4.171875,4.203125,294400,4.28125,4.171875,1.4984335899353027
03-10-1984,4.0,4.140625,1790400,4.1875,4.03125,1.447925090789795
04-10-1984,4.03125,4.03125,644000,4.09375,4.09375,1.4703737497329712
05-10-1984,4.125,4.125,310400,4.21875,4.171875,1.4984335899353027
08-10-1984,4.078125,4.15625,121600,4.171875,4.109375,1.4759862422943115
09-10-1984,4.09375,4.109375,1056000,4.15625,4.140625,1.487209439277649
10-10-1984,4.03125,4.140625,262400,4.15625,4.15625,1.4928224086761475
11-10-1984,4.140625,4.140625,126400,4.21875,4.21875,1.5152697563171387
12-10-1984,4.1875,4.1875,442400,4.328125,4.296875,1.5433318614959717
15-10-1984,4.28125,4.3125,1718400,4.390625,4.34375,1.560167908668518
16-10-1984,4.1875,4.328125,244000,4.34375,4.21875,1.5152697563171387
17-10-1984,4.1875,4.21875,328800,4.28125,4.25,1.5264946222305298
18-10-1984,4.21875,4.21875,368000,4.34375,4.34375,1.560167908668518
19-10-1984,4.34375,4.34375,1361600,4.5625,4.421875,1.5882278680801392
22-10-1984,4.375,4.421875,663200,4.421875,4.375,1.5713918209075928
23-10-1984,4.3125,4.34375,997600,4.375,4.34375,1.560167908668518
24-10-1984,4.328125,4.328125,234400,4.4375,4.390625,1.577003836631775
25-10-1984,4.328125,4.375,1270400,4.390625,4.34375,1.560167908668518
26-10-1984,4.234375,4.3125,825600,4.34375,4.28125,1.5377192497253418
29-10-1984,4.25,4.265625,343200,4.28125,4.25,1.5264946222305298
30-10-1984,4.21875,4.25,420000,4.359375,4.328125,1.5545551776885986
31-10-1984,4.28125,4.28125,791200,4.3125,4.296875,1.5433318614959717
01-11-1984,4.09375,4.125,859200,4.15625,4.125,1.481597900390625
02-11-1984,4.0625,4.078125,1601600,4.171875,4.140625,1.5036131143569946
05-11-1984,4.109375,4.125,407200,4.203125,4.203125,1.5263093709945679
06-11-1984,4.21875,4.21875,916000,4.296875,4.296875,1.5603537559509277
07-11-1984,4.234375,4.28125,539200,4.296875,4.28125,1.5546796321868896
08-11-1984,4.25,4.28125,999200,4.296875,4.28125,1.5546796321868896
09-11-1984,4.234375,4.296875,480000,4.3125,4.28125,1.5546796321868896
12-11-1984,4.265625,4.265625,361600,4.3125,4.296875,1.5603537559509277
13-11-1984,4.234375,4.265625,615200,4.296875,4.28125,1.5546796321868896
14-11-1984,4.25,4.265625,357600,4.328125,4.3125,1.5660268068313599
15-11-1984,4.28125,4.3125,764000,4.3125,4.3125,1.5660268068313599
16-11-1984,4.28125,4.3125,492000,4.359375,4.328125,1.5717002153396606
19-11-1984,4.28125,4.296875,768000,4.375,4.3125,1.5660268068313599
20-11-1984,4.21875,4.265625,313600,4.296875,4.25,1.5433316230773926
21-11-1984,4.21875,4.28125,612800,4.28125,4.25,1.5433316230773926
23-11-1984,4.21875,4.234375,168000,4.28125,4.25,1.5433316230773926
26-11-1984,4.203125,4.25,520800,4.25,4.234375,1.5376566648483276
27-11-1984,4.171875,4.203125,790400,4.234375,4.203125,1.5263093709945679
28-11-1984,4.125,4.1875,481600,4.1875,4.140625,1.5036131143569946
29-11-1984,4.03125,4.109375,733600,4.125,4.078125,1.4809168577194214
30-11-1984,4.078125,4.125,350400,4.1875,4.109375,1.4922653436660767
03-12-1984,4.0625,4.078125,244800,4.125,4.078125,1.4809168577194214
04-12-1984,4.078125,4.078125,598400,4.1875,4.15625,1.5092878341674805
05-12-1984,4.0625,4.125,287200,4.125,4.09375,1.4865907430648804
06-12-1984,4.078125,4.09375,384800,4.171875,4.140625,1.5036131143569946
07-12-1984,4.09375,4.09375,342400,4.140625,4.125,1.4979385137557983
10-12-1984,4.125,4.125,331200,4.171875,4.140625,1.5036131143569946
11-12-1984,4.125,4.125,416000,4.1875,4.140625,1.5036131143569946
12-12-1984,4.125,4.125,872800,4.15625,4.140625,1.5036131143569946
13-12-1984,4.09375,4.125,420000,4.15625,4.109375,1.4922653436660767
14-12-1984,4.0625,4.078125,412000,4.125,4.09375,1.4865907430648804
17-12-1984,4.0,4.125,1825600,4.125,4.0625,1.475242018699646
18-12-1984,4.09375,4.09375,884000,4.171875,4.171875,1.5149610042572021
19-12-1984,4.15625,4.15625,755200,4.21875,4.15625,1.5092878341674805
20-12-1984,4.125,4.203125,779200,4.21875,4.125,1.4979385137557983
21-12-1984,3.9375,4.09375,1142400,4.15625,4.046875,1.4695683717727661
24-12-1984,4.046875,4.078125,260800,4.125,4.109375,1.4922653436660767
26-12-1984,4.03125,4.109375,103200,4.109375,4.046875,1.4695683717727661
27-12-1984,4.046875,4.078125,1440800,4.09375,4.0625,1.475242018699646
28-12-1984,4.0,4.03125,319200,4.0625,4.046875,1.4695683717727661
31-12-1984,4.046875,4.078125,479200,4.171875,4.109375,1.4922653436660767
02-01-1985,4.109375,4.109375,910400,4.203125,4.15625,1.5092878341674805
03-01-1985,4.125,4.15625,364800,4.171875,4.15625,1.5092878341674805
04-01-1985,4.125,4.140625,332800,4.171875,4.125,1.4979385137557983
07-01-1985,4.140625,4.171875,1047200,4.21875,4.171875,1.5149610042572021
08-01-1985,4.15625,4.171875,320800,4.203125,4.1875,1.520634412765503
09-01-1985,4.1875,4.21875,337600,4.21875,4.21875,1.531982660293579
10-01-1985,4.203125,4.21875,1797600,4.296875,4.296875,1.5603537559509277
11-01-1985,4.234375,4.296875,1031200,4.3125,4.28125,1.5546796321868896
14-01-1985,4.25,4.25,2920800,4.328125,4.328125,1.5717002153396606
15-01-1985,4.296875,4.328125,5229600,4.4375,4.40625,1.6000714302062988
16-01-1985,4.40625,4.5,13840000,4.5625,4.515625,1.6397886276245117
17-01-1985,4.484375,4.515625,1127200,4.515625,4.5,1.6341149806976318
18-01-1985,4.515625,4.53125,2415200,4.578125,4.546875,1.651137351989746
21-01-1985,4.53125,4.53125,1831200,4.71875,4.71875,1.7135517597198486
22-01-1985,4.71875,4.734375,2558400,4.859375,4.734375,1.7192258834838867
23-01-1985,4.71875,4.75,644800,4.796875,4.765625,1.730574131011963
24-01-1985,4.71875,4.734375,940800,4.796875,4.734375,1.7192258834838867
25-01-1985,4.71875,4.71875,966400,4.921875,4.921875,1.7873132228851318
28-01-1985,4.859375,4.875,801600,5.0,5.0,1.8156834840774536
29-01-1985,4.875,4.921875,579200,4.96875,4.96875,1.8043348789215088
30-01-1985,4.890625,4.984375,1524000,4.984375,4.96875,1.8043348789215088
31-01-1985,4.78125,4.875,620800,4.90625,4.84375,1.7589433193206787
01-02-1985,4.78125,4.8125,423200,4.84375,4.78125,1.7362470626831055
04-02-1985,4.765625,4.765625,1716000,4.828125,4.8125,1.7475959062576294
05-02-1985,4.75,4.8125,636800,4.828125,4.78125,1.7362470626831055
06-02-1985,4.65625,4.765625,1779200,4.8125,4.703125,1.7078777551651
07-02-1985,4.6875,4.703125,568000,4.78125,4.78125,1.7362470626831055
08-02-1985,4.75,4.78125,959200,4.859375,4.859375,1.7646174430847168
11-02-1985,4.78125,4.8125,571200,4.8125,4.796875,1.7600315809249878
12-02-1985,4.71875,4.765625,586400,4.796875,4.734375,1.7370991706848145
13-02-1985,4.6875,4.71875,432000,4.75,4.734375,1.7370991706848145
14-02-1985,4.65625,4.734375,1396800,4.734375,4.6875,1.7199000120162964
15-02-1985,4.625,4.65625,1879200,4.65625,4.625,1.6969687938690186
19-02-1985,4.609375,4.6875,924800,4.6875,4.609375,1.6912347078323364
20-02-1985,4.578125,4.609375,1586400,4.625,4.59375,1.6855030059814453
21-02-1985,4.546875,4.59375,1268000,4.59375,4.578125,1.6797689199447632
22-02-1985,4.546875,4.5625,1045600,4.609375,4.59375,1.6855030059814453
25-02-1985,4.609375,4.609375,356800,4.609375,4.609375,1.6912347078323364
26-02-1985,4.59375,4.609375,665600,4.65625,4.640625,1.7027007341384888
27-02-1985,4.625,4.625,451200,4.6875,4.65625,1.7084342241287231
28-02-1985,4.671875,4.6875,763200,4.71875,4.71875,1.7313663959503174
01-03-1985,4.71875,4.75,774400,4.859375,4.828125,1.771497130393982
04-03-1985,4.734375,4.796875,907200,4.8125,4.765625,1.7485653162002563
05-03-1985,4.71875,4.796875,940000,4.84375,4.75,1.742830753326416
06-03-1985,4.75,4.75,1347200,4.859375,4.8125,1.7657636404037476
07-03-1985,4.765625,4.78125,678400,4.890625,4.828125,1.771497130393982
08-03-1985,4.8125,4.8125,493600,4.90625,4.90625,1.8001621961593628
11-03-1985,4.859375,4.875,1016000,4.953125,4.875,1.7886961698532104
12-03-1985,4.6875,4.84375,862400,4.875,4.75,1.742830753326416
13-03-1985,4.6875,4.71875,280800,4.796875,4.703125,1.725633144378662
14-03-1985,4.65625,4.6875,569600,4.8125,4.796875,1.7600315809249878
15-03-1985,4.625,4.765625,582400,4.8125,4.625,1.6969687938690186
18-03-1985,4.625,4.625,464000,4.703125,4.671875,1.7141661643981934
19-03-1985,4.640625,4.640625,392800,4.796875,4.75,1.742830753326416
20-03-1985,4.65625,4.71875,212800,4.71875,4.6875,1.7199000120162964
21-03-1985,4.625,4.65625,334400,4.703125,4.671875,1.7141661643981934
22-03-1985,4.65625,4.6875,413600,4.734375,4.703125,1.725633144378662
25-03-1985,4.65625,4.703125,211200,4.734375,4.703125,1.725633144378662
26-03-1985,4.6875,4.71875,472000,4.78125,4.71875,1.7313663959503174
27-03-1985,4.703125,4.734375,250400,4.75,4.734375,1.7370991706848145
28-03-1985,4.640625,4.734375,610400,4.734375,4.671875,1.7141661643981934
29-03-1985,4.625,4.703125,410400,4.703125,4.65625,1.7084342241287231
01-04-1985,4.65625,4.671875,460800,4.703125,4.6875,1.7199000120162964
02-04-1985,4.671875,4.703125,448000,4.71875,4.703125,1.725633144378662
03-04-1985,4.671875,4.671875,388000,4.75,4.75,1.742830753326416
04-04-1985,4.703125,4.703125,434400,4.75,4.734375,1.7370991706848145
08-04-1985,4.703125,4.734375,388000,4.734375,4.734375,1.7370991706848145
09-04-1985,4.6875,4.6875,454400,4.71875,4.71875,1.7313663959503174
10-04-1985,4.65625,4.78125,894400,4.78125,4.6875,1.7199000120162964
11-04-1985,4.671875,4.703125,643200,4.71875,4.6875,1.7199000120162964
12-04-1985,4.625,4.65625,1068800,4.6875,4.65625,1.7084342241287231
15-04-1985,4.625,4.625,189600,4.6875,4.6875,1.7199000120162964
16-04-1985,4.578125,4.640625,768800,4.671875,4.625,1.6969687938690186
17-04-1985,4.421875,4.5625,2160800,4.578125,4.484375,1.6453717947006226
18-04-1985,4.390625,4.40625,640800,4.4375,4.421875,1.6224392652511597
19-04-1985,4.390625,4.4375,615200,4.453125,4.4375,1.6281721591949463
22-04-1985,4.34375,4.40625,780000,4.40625,4.40625,1.6167058944702148
23-04-1985,4.34375,4.34375,564000,4.453125,4.453125,1.6339054107666016
24-04-1985,4.375,4.390625,4750400,4.453125,4.390625,1.6109737157821655
25-04-1985,4.34375,4.4375,649600,4.4375,4.4375,1.6281721591949463
26-04-1985,4.390625,4.40625,842400,4.4375,4.421875,1.6224392652511597
29-04-1985,4.375,4.421875,504000,4.421875,4.390625,1.6109737157821655
30-04-1985,4.34375,4.359375,612800,4.375,4.359375,1.5995073318481445
01-05-1985,4.34375,4.359375,2526400,4.40625,4.34375,1.5937743186950684
02-05-1985,4.3125,4.328125,977600,4.359375,4.359375,1.5995073318481445
03-05-1985,4.34375,4.359375,497600,4.40625,4.390625,1.6109737157821655
06-05-1985,4.3125,4.359375,297600,4.375,4.3125,1.600534439086914
07-05-1985,4.3125,4.34375,423200,4.375,4.375,1.6237304210662842
08-05-1985,4.328125,4.375,1213600,4.375,4.34375,1.6121330261230469
09-05-1985,4.359375,4.359375,549600,4.40625,4.40625,1.635329246520996
10-05-1985,4.40625,4.421875,1000000,4.53125,4.515625,1.6759215593338013
13-05-1985,4.46875,4.546875,528000,4.546875,4.5,1.6701231002807617
14-05-1985,4.53125,4.53125,852000,4.625,4.59375,1.704918384552002
15-05-1985,4.59375,4.609375,1112000,4.6875,4.640625,1.722314476966858
16-05-1985,4.65625,4.671875,509600,4.75,4.75,1.7629061937332153
17-05-1985,4.78125,4.78125,1585600,4.859375,4.84375,1.7977029085159302
20-05-1985,4.875,4.890625,1227200,4.96875,4.9375,1.8324978351593018
21-05-1985,4.90625,4.9375,665600,4.96875,4.953125,1.8382954597473145
22-05-1985,4.921875,4.9375,1565600,4.96875,4.9375,1.8324978351593018
23-05-1985,4.875,4.921875,925600,4.953125,4.953125,1.8382954597473145
24-05-1985,4.890625,4.96875,918400,4.984375,4.921875,1.826697587966919
28-05-1985,4.828125,4.90625,714400,4.921875,4.859375,1.8035006523132324
29-05-1985,4.828125,4.84375,803200,4.90625,4.875,1.809300184249878
30-05-1985,4.84375,4.890625,470400,4.90625,4.875,1.809300184249878
31-05-1985,4.84375,4.875,618400,4.90625,4.890625,1.815099835395813
03-06-1985,4.796875,4.859375,446400,4.890625,4.8125,1.7861040830612183
04-06-1985,4.78125,4.78125,4740800,4.96875,4.921875,1.826697587966919
05-06-1985,4.9375,4.953125,2116000,5.109375,5.09375,1.8904880285263062
06-06-1985,5.03125,5.09375,1146400,5.109375,5.109375,1.896286129951477
07-06-1985,5.09375,5.09375,784000,5.1875,5.15625,1.9136834144592285
10-06-1985,5.125,5.15625,580800,5.15625,5.125,1.9020849466323853
11-06-1985,5.09375,5.140625,719200,5.140625,5.109375,1.896286129951477
12-06-1985,5.078125,5.109375,701600,5.125,5.09375,1.8904880285263062
13-06-1985,5.078125,5.125,1678400,5.15625,5.09375,1.8904880285263062
14-06-1985,5.125,5.140625,594400,5.234375,5.21875,1.9368780851364136
17-06-1985,5.1875,5.203125,363200,5.25,5.25,1.9484773874282837
18-06-1985,5.171875,5.21875,696800,5.28125,5.1875,1.9252804517745972
19-06-1985,5.15625,5.203125,1571200,5.28125,5.25,1.9484773874282837
20-06-1985,5.21875,5.21875,241600,5.28125,5.28125,1.9600744247436523
21-06-1985,5.25,5.25,808000,5.296875,5.296875,1.965874195098877
24-06-1985,5.21875,5.265625,1336800,5.28125,5.265625,1.954276442527771
25-06-1985,5.1875,5.25,1568000,5.359375,5.203125,1.9310804605484009
26-06-1985,5.1875,5.21875,676000,5.28125,5.25,1.9484773874282837
27-06-1985,5.21875,5.25,648000,5.296875,5.21875,1.9368780851364136
28-06-1985,5.203125,5.25,646400,5.265625,5.234375,1.94267737865448
01-07-1985,5.203125,5.234375,485600,5.296875,5.28125,1.9600744247436523
02-07-1985,5.25,5.265625,669600,5.3125,5.3125,1.9716730117797852
03-07-1985,5.28125,5.3125,1062400,5.4375,5.40625,2.006467580795288
05-07-1985,5.390625,5.40625,444000,5.421875,5.421875,2.0122666358947754
08-07-1985,5.390625,5.390625,688000,5.421875,5.421875,2.0122666358947754
09-07-1985,5.328125,5.421875,791200,5.421875,5.390625,2.0006682872772217
10-07-1985,5.34375,5.375,2248800,5.40625,5.375,1.994868278503418
11-07-1985,5.328125,5.328125,1067200,5.390625,5.390625,2.0006682872772217
12-07-1985,5.390625,5.421875,568800,5.453125,5.453125,2.0238637924194336
15-07-1985,5.4375,5.46875,708800,5.5,5.453125,2.0238637924194336
16-07-1985,5.421875,5.453125,656800,5.53125,5.5,2.041262149810791
17-07-1985,5.59375,5.625,2698400,5.671875,5.671875,2.105050563812256
18-07-1985,5.625,5.671875,1896000,5.796875,5.78125,2.145643472671509
19-07-1985,5.734375,5.75,1309600,5.90625,5.875,2.180438280105591
22-07-1985,5.71875,5.84375,429600,5.859375,5.765625,2.139846086502075
23-07-1985,5.59375,5.796875,941600,5.8125,5.625,2.0876524448394775
24-07-1985,5.5,5.65625,410400,5.65625,5.53125,2.052859306335449
25-07-1985,5.5,5.53125,535200,5.5625,5.5625,2.0644583702087402
26-07-1985,5.546875,5.546875,1002400,5.734375,5.71875,2.1224472522735596
29-07-1985,5.59375,5.734375,928000,5.734375,5.640625,2.0934529304504395
30-07-1985,5.59375,5.625,361600,5.65625,5.640625,2.0934529304504395
31-07-1985,5.625,5.640625,216800,5.6875,5.671875,2.105050563812256
01-08-1985,5.625,5.671875,372800,5.6875,5.65625,2.0992515087127686
02-08-1985,5.640625,5.671875,945600,5.734375,5.6875,2.1108503341674805
05-08-1985,5.640625,5.6875,348800,5.6875,5.65625,2.0992515087127686
06-08-1985,5.46875,5.5,2713600,5.65625,5.5,2.0594680309295654
07-08-1985,5.40625,5.5,1204000,5.53125,5.5,2.0594680309295654
08-08-1985,5.5,5.53125,1320000,5.6875,5.6875,2.129676342010498
09-08-1985,5.609375,5.65625,725600,5.703125,5.640625,2.112123489379883
12-08-1985,5.609375,5.609375,644000,5.65625,5.625,2.106271743774414
13-08-1985,5.625,5.640625,587200,5.6875,5.640625,2.112123489379883
14-08-1985,5.625,5.625,302400,5.6875,5.65625,2.117973804473877
15-08-1985,5.53125,5.671875,822400,5.671875,5.53125,2.0711686611175537
16-08-1985,5.375,5.5,678400,5.53125,5.421875,2.0302138328552246
19-08-1985,5.421875,5.421875,441600,5.484375,5.453125,2.0419139862060547
20-08-1985,5.453125,5.484375,385600,5.578125,5.546875,2.0770187377929688
21-08-1985,5.453125,5.53125,1249600,5.625,5.5625,2.0828702449798584
22-08-1985,5.484375,5.59375,1018400,5.59375,5.5,2.0594680309295654
23-08-1985,5.4375,5.46875,458400,5.5625,5.484375,2.053615093231201
26-08-1985,5.484375,5.484375,340800,5.546875,5.5,2.0594680309295654
27-08-1985,5.484375,5.484375,152800,5.5625,5.5625,2.0828702449798584
28-08-1985,5.46875,5.5625,448800,5.578125,5.5,2.0594680309295654
29-08-1985,5.484375,5.5,355200,5.546875,5.53125,2.0711686611175537
30-08-1985,5.484375,5.53125,737600,5.546875,5.53125,2.0711686611175537
03-09-1985,5.515625,5.546875,384000,5.6875,5.6875,2.129676342010498
04-09-1985,5.625,5.6875,371200,5.734375,5.671875,2.1238248348236084
05-09-1985,5.5625,5.6875,484000,5.6875,5.578125,2.0887207984924316
06-09-1985,5.484375,5.5625,406400,5.59375,5.546875,2.0770187377929688
09-09-1985,5.5,5.5625,142400,5.5625,5.5,2.0594680309295654
10-09-1985,5.46875,5.46875,272800,5.515625,5.5,2.0594680309295654
11-09-1985,5.375,5.5,1280000,5.5,5.390625,2.0185112953186035
12-09-1985,5.34375,5.375,597600,5.4375,5.375,2.012660026550293
13-09-1985,5.375,5.375,556800,5.4375,5.421875,2.0302138328552246
16-09-1985,5.40625,5.453125,253600,5.53125,5.515625,2.0653176307678223
17-09-1985,5.515625,5.515625,879200,5.625,5.609375,2.1004230976104736
18-09-1985,5.484375,5.578125,427200,5.640625,5.484375,2.053615093231201
19-09-1985,5.453125,5.515625,568000,5.515625,5.484375,2.053615093231201
20-09-1985,5.421875,5.453125,589600,5.53125,5.46875,2.0477662086486816
23-09-1985,5.53125,5.53125,484000,5.59375,5.59375,2.0945703983306885
24-09-1985,5.578125,5.59375,599200,5.65625,5.609375,2.1004230976104736
25-09-1985,5.546875,5.546875,301600,5.609375,5.609375,2.1004230976104736
26-09-1985,5.53125,5.625,360000,5.625,5.59375,2.0945703983306885
30-09-1985,5.578125,5.59375,349600,5.625,5.625,2.106271743774414
01-10-1985,5.59375,5.609375,324000,5.703125,5.703125,2.1355271339416504
02-10-1985,5.59375,5.71875,1103200,5.796875,5.59375,2.0945703983306885
03-10-1985,5.578125,5.578125,260800,5.6875,5.609375,2.1004230976104736
04-10-1985,5.546875,5.609375,794400,5.609375,5.578125,2.0887207984924316
07-10-1985,5.390625,5.5625,848800,5.5625,5.40625,2.024362802505493
08-10-1985,5.40625,5.4375,253600,5.484375,5.453125,2.0419139862060547
09-10-1985,5.40625,5.421875,2060000,5.46875,5.4375,2.0360641479492188
10-10-1985,5.421875,5.421875,260000,5.453125,5.4375,2.0360641479492188
11-10-1985,5.40625,5.40625,1391200,5.46875,5.46875,2.0477662086486816
14-10-1985,5.453125,5.46875,680000,5.53125,5.53125,2.0711686611175537
15-10-1985,5.53125,5.5625,476800,5.59375,5.59375,2.0945703983306885
16-10-1985,5.578125,5.578125,1112000,5.671875,5.671875,2.1238248348236084
17-10-1985,5.640625,5.640625,757600,5.703125,5.6875,2.129676342010498
18-10-1985,5.5625,5.671875,757600,5.703125,5.578125,2.0887207984924316
21-10-1985,5.5625,5.59375,1012800,5.734375,5.65625,2.117973804473877
22-10-1985,5.65625,5.671875,692000,5.71875,5.703125,2.1355271339416504
23-10-1985,5.59375,5.703125,376800,5.703125,5.671875,2.1238248348236084
24-10-1985,5.59375,5.65625,386400,5.671875,5.625,2.106271743774414
25-10-1985,5.515625,5.59375,182400,5.609375,5.609375,2.1004230976104736
28-10-1985,5.546875,5.609375,180000,5.625,5.609375,2.1004230976104736
29-10-1985,5.609375,5.609375,212800,5.65625,5.65625,2.117973804473877
30-10-1985,5.625,5.625,640000,5.671875,5.671875,2.1238248348236084
31-10-1985,5.65625,5.65625,524000,5.6875,5.6875,2.129676342010498
01-11-1985,5.65625,5.65625,965600,5.890625,5.890625,2.205735445022583
04-11-1985,5.859375,5.90625,1089600,6.0,5.90625,2.2115871906280518
05-11-1985,5.8125,6.015625,884000,6.015625,6.015625,2.273714780807495
06-11-1985,6.015625,6.015625,1521600,6.15625,6.046875,2.285526990890503
07-11-1985,6.03125,6.046875,840000,6.15625,6.15625,2.3268673419952393
08-11-1985,6.046875,6.125,337600,6.125,6.09375,2.3032429218292236
11-11-1985,6.03125,6.09375,656800,6.15625,6.15625,2.3268673419952393
12-11-1985,6.125,6.125,1264800,6.25,6.234375,2.3563969135284424
13-11-1985,6.140625,6.25,449600,6.25,6.140625,2.320960760116577
14-11-1985,6.078125,6.125,614400,6.234375,6.171875,2.332773208618164
15-11-1985,6.15625,6.15625,1276800,6.3125,6.203125,2.3445844650268555
18-11-1985,6.140625,6.21875,1349600,6.296875,6.296875,2.3800182342529297
19-11-1985,6.34375,6.375,854400,6.421875,6.421875,2.42726469039917
20-11-1985,6.34375,6.375,290400,6.40625,6.375,2.409548759460449
21-11-1985,6.34375,6.375,668800,6.40625,6.375,2.409548759460449
22-11-1985,6.203125,6.34375,374400,6.375,6.21875,2.350490093231201
25-11-1985,6.1875,6.3125,424800,6.3125,6.265625,2.3682074546813965
26-11-1985,6.0625,6.234375,1265600,6.25,6.15625,2.3268673419952393
27-11-1985,6.1875,6.1875,1169600,6.3125,6.28125,2.374113082885742
29-11-1985,6.203125,6.25,924800,6.3125,6.234375,2.3563969135284424
02-12-1985,6.125,6.203125,472800,6.21875,6.203125,2.3445844650268555
03-12-1985,6.171875,6.21875,650400,6.25,6.1875,2.3386781215667725
04-12-1985,6.03125,6.0625,2110400,6.1875,6.171875,2.332773208618164
05-12-1985,5.9375,6.15625,1506400,6.1875,5.9375,2.244185209274292
06-12-1985,5.5625,5.90625,1225600,5.90625,5.859375,2.214657783508301
09-12-1985,5.828125,5.828125,827200,6.078125,5.96875,2.255998134613037
10-12-1985,5.9375,5.9375,409600,6.03125,5.953125,2.2500929832458496
11-12-1985,5.9375,5.9375,549600,6.0,5.984375,2.261903762817383
12-12-1985,5.90625,5.984375,1932000,6.0625,5.984375,2.261903762817383
13-12-1985,5.984375,5.984375,625600,6.234375,6.203125,2.3445844650268555
16-12-1985,6.140625,6.1875,1236000,6.359375,6.34375,2.397735595703125
17-12-1985,6.1875,6.359375,1179200,6.359375,6.359375,2.403641939163208
18-12-1985,6.28125,6.328125,987200,6.375,6.34375,2.397735595703125
19-12-1985,6.28125,6.296875,683200,6.359375,6.296875,2.3800182342529297
20-12-1985,6.25,6.296875,795200,6.375,6.375,2.409548759460449
23-12-1985,6.28125,6.3125,602400,6.375,6.359375,2.403641939163208
24-12-1985,6.09375,6.3125,727200,6.3125,6.140625,2.320960760116577
26-12-1985,6.09375,6.125,173600,6.140625,6.109375,2.3091511726379395
27-12-1985,6.078125,6.078125,525600,6.1875,6.1875,2.3386781215667725
30-12-1985,6.15625,6.1875,418400,6.265625,6.265625,2.3682074546813965
31-12-1985,6.25,6.28125,786400,6.375,6.375,2.409548759460449
02-01-1986,6.296875,6.375,540800,6.375,6.328125,2.3918299674987793
03-01-1986,6.25,6.3125,650400,6.34375,6.296875,2.3800182342529297
06-01-1986,6.140625,6.296875,427200,6.296875,6.1875,2.3386781215667725
07-01-1986,6.03125,6.21875,592000,6.234375,6.125,2.3150556087493896
08-01-1986,5.6875,6.15625,1376800,6.171875,5.71875,2.1615054607391357
09-01-1986,5.625,5.625,1164800,5.828125,5.828125,2.2028472423553467
10-01-1986,5.765625,5.8125,749600,5.84375,5.78125,2.1851282119750977
13-01-1986,5.765625,5.78125,688800,5.84375,5.78125,2.1851282119750977
14-01-1986,5.71875,5.78125,1518400,5.796875,5.765625,2.1792235374450684
15-01-1986,5.71875,5.75,1378400,5.90625,5.90625,2.232375383377075
16-01-1986,5.875,5.921875,352000,6.03125,5.984375,2.261903762817383
17-01-1986,5.9375,5.953125,518400,6.0625,6.015625,2.273714780807495
20-01-1986,5.890625,5.984375,744800,5.984375,5.96875,2.255998134613037
21-01-1986,5.875,5.953125,740000,6.0,5.921875,2.2382795810699463
22-01-1986,5.8125,5.96875,1319200,6.0,5.8125,2.1969401836395264
23-01-1986,5.765625,5.78125,598400,5.875,5.828125,2.2028472423553467
24-01-1986,5.8125,5.8125,909600,5.953125,5.953125,2.2500929832458496
27-01-1986,5.890625,5.90625,435200,5.984375,5.96875,2.255998134613037
28-01-1986,5.9375,6.0,480800,6.0,5.953125,2.2500929832458496
29-01-1986,5.953125,5.984375,848000,6.125,6.03125,2.279621124267578
30-01-1986,6.0,6.015625,881600,6.109375,6.0625,2.291431427001953
31-01-1986,6.078125,6.109375,1335200,6.171875,6.140625,2.320960760116577
03-02-1986,6.109375,6.109375,628000,6.21875,6.203125,2.3445844650268555
04-02-1986,6.21875,6.25,1524000,6.28125,6.234375,2.3563969135284424
05-02-1986,6.234375,6.25,1951200,6.328125,6.3125,2.3859241008758545
06-02-1986,6.328125,6.34375,1742400,6.453125,6.421875,2.42726469039917
07-02-1986,6.359375,6.421875,972000,6.53125,6.53125,2.468604803085327
10-02-1986,6.546875,6.703125,1145600,6.734375,6.703125,2.5335676670074463
11-02-1986,6.640625,6.875,1729600,6.890625,6.875,2.620028018951416
12-02-1986,6.75,6.84375,1461600,6.90625,6.75,2.5723934173583984
13-02-1986,6.6875,6.71875,1157600,6.875,6.875,2.620028018951416
14-02-1986,6.734375,6.90625,1000000,6.96875,6.96875,2.6557583808898926
18-02-1986,6.96875,7.0,1034400,7.15625,7.125,2.715304136276245
19-02-1986,7.125,7.15625,1052000,7.34375,7.171875,2.7331669330596924
20-02-1986,7.125,7.171875,2320800,7.234375,7.15625,2.7272109985351562
21-02-1986,7.140625,7.15625,1183200,7.3125,7.265625,2.768895387649536
24-02-1986,7.15625,7.21875,668800,7.3125,7.296875,2.7808032035827637
25-02-1986,7.15625,7.3125,1738400,7.34375,7.21875,2.7510297298431396
26-02-1986,7.21875,7.25,732000,7.296875,7.28125,2.7748472690582275
27-02-1986,7.25,7.3125,463200,7.375,7.328125,2.7927117347717285
28-02-1986,7.46875,7.5,1215200,7.6875,7.6875,2.9296693801879883
03-03-1986,7.421875,7.6875,721600,7.6875,7.453125,2.840350866317749
04-03-1986,7.34375,7.453125,1326400,7.6875,7.53125,2.870123863220215
05-03-1986,7.46875,7.5625,562400,7.5625,7.5625,2.882030725479126
06-03-1986,7.5625,7.59375,1779200,8.046875,7.984375,3.04280686378479
07-03-1986,7.84375,7.984375,1203200,7.984375,7.90625,3.013033151626587
10-03-1986,7.71875,7.90625,428000,7.96875,7.71875,2.9415781497955322
11-03-1986,7.703125,7.703125,742400,7.921875,7.890625,3.0070791244506836
12-03-1986,7.875,7.875,964800,8.15625,8.03125,3.060671091079712
13-03-1986,7.921875,8.0625,636000,8.125,8.09375,3.084489345550537
14-03-1986,7.53125,8.0625,1812800,8.125,8.0625,3.072580575942993
17-03-1986,7.78125,7.96875,766400,8.0625,7.984375,3.04280686378479
18-03-1986,7.8125,7.96875,484800,7.984375,7.953125,3.0308969020843506
19-03-1986,7.8125,7.921875,692000,7.96875,7.90625,3.013033151626587
20-03-1986,7.875,7.90625,1108000,8.0625,8.0625,3.072580575942993
21-03-1986,8.0625,8.125,1337600,8.21875,8.15625,3.1083076000213623
24-03-1986,8.125,8.21875,1558400,8.265625,8.203125,3.1261706352233887
25-03-1986,7.9375,8.1875,685600,8.1875,8.109375,3.0904431343078613
26-03-1986,8.015625,8.109375,904000,8.109375,8.046875,3.0666251182556152
27-03-1986,8.0,8.09375,678400,8.109375,8.015625,3.054716110229492
31-03-1986,8.03125,8.078125,582400,8.109375,8.078125,3.078533172607422
01-04-1986,8.015625,8.109375,619200,8.109375,8.015625,3.054716110229492
02-04-1986,7.96875,8.03125,1211200,8.046875,8.046875,3.0666251182556152
03-04-1986,7.9375,8.046875,392800,8.078125,7.96875,3.036851167678833
04-04-1986,7.59375,7.9375,819200,8.09375,7.59375,2.893941879272461
07-04-1986,7.546875,7.59375,560800,7.65625,7.65625,2.9177587032318115
08-04-1986,7.640625,7.671875,503200,7.875,7.75,2.9534878730773926
09-04-1986,7.609375,7.8125,917600,7.890625,7.625,2.905851364135742
10-04-1986,7.375,7.65625,1039200,7.65625,7.59375,2.893941879272461
11-04-1986,7.546875,7.578125,458400,7.65625,7.625,2.905851364135742
14-04-1986,7.53125,7.65625,730400,7.671875,7.625,2.905851364135742
15-04-1986,7.625,7.65625,269600,7.734375,7.640625,2.911806106567383
16-04-1986,7.71875,7.71875,1074400,8.28125,8.25,3.144035816192627
17-04-1986,7.9375,8.1875,801600,8.234375,8.0,3.0487608909606934
18-04-1986,7.640625,8.03125,1028000,8.046875,8.03125,3.060671091079712
21-04-1986,8.0,8.09375,858400,8.109375,8.078125,3.078533172607422
22-04-1986,8.125,8.21875,1219200,8.28125,8.25,3.144035816192627
23-04-1986,8.1875,8.25,945600,8.28125,8.25,3.144035816192627
24-04-1986,8.1875,8.1875,652800,8.265625,8.203125,3.1261706352233887
25-04-1986,8.15625,8.203125,555200,8.234375,8.234375,3.1380820274353027
28-04-1986,8.15625,8.234375,561600,8.265625,8.234375,3.1380820274353027
29-04-1986,8.015625,8.203125,452000,8.203125,8.09375,3.084489345550537
30-04-1986,8.09375,8.171875,1053600,8.28125,8.125,3.096397876739502
01-05-1986,8.03125,8.09375,796000,8.25,8.234375,3.1380820274353027
02-05-1986,8.125,8.203125,712800,8.265625,8.203125,3.1261706352233887
05-05-1986,8.125,8.171875,431200,8.25,8.21875,3.1321239471435547
06-05-1986,8.09375,8.09375,180800,8.1875,8.09375,3.1071722507476807
07-05-1986,8.09375,8.140625,590400,8.25,8.234375,3.161159038543701
08-05-1986,8.03125,8.28125,355200,8.28125,8.046875,3.0891764163970947
09-05-1986,7.921875,8.015625,398400,8.015625,7.921875,3.0411899089813232
12-05-1986,7.796875,7.9375,1021600,7.953125,7.796875,2.9932026863098145
13-05-1986,7.65625,7.796875,651200,7.796875,7.703125,2.9572136402130127
14-05-1986,7.625,7.71875,809600,7.734375,7.625,2.927220106124878
15-05-1986,7.4375,7.640625,608000,7.640625,7.46875,2.8672373294830322
16-05-1986,7.3125,7.4375,1061600,7.5,7.5,2.8792333602905273
19-05-1986,7.515625,7.53125,737600,7.625,7.609375,2.9212212562561035
20-05-1986,7.5625,7.609375,799200,7.75,7.734375,2.9692084789276123
21-05-1986,7.640625,7.75,1017600,7.796875,7.75,2.975208044052124
22-05-1986,7.734375,7.75,465600,7.90625,7.90625,3.0351924896240234
23-05-1986,7.890625,7.921875,533600,8.03125,8.015625,3.0771801471710205
27-05-1986,7.953125,7.984375,221600,8.015625,7.984375,3.0651838779449463
28-05-1986,7.875,7.984375,617600,8.0,7.953125,3.053187131881714
29-05-1986,7.8125,7.921875,1089600,7.9375,7.9375,3.0471882820129395
30-05-1986,7.828125,7.875,1028000,7.90625,7.890625,3.02919340133667
02-06-1986,7.875,7.90625,1261600,7.953125,7.953125,3.053187131881714
03-06-1986,7.90625,7.921875,451200,7.953125,7.953125,3.053187131881714
04-06-1986,7.96875,7.984375,777600,8.109375,8.09375,3.1071722507476807
05-06-1986,8.015625,8.09375,804800,8.109375,8.109375,3.113171339035034
06-06-1986,7.890625,8.078125,664800,8.09375,7.921875,3.0411899089813232
09-06-1986,7.578125,7.890625,507200,7.890625,7.625,2.927220106124878
10-06-1986,7.59375,7.609375,776800,7.71875,7.65625,2.939215660095215
11-06-1986,7.625,7.671875,693600,7.734375,7.71875,2.963209390640259
12-06-1986,7.640625,7.6875,357600,7.859375,7.859375,3.0171968936920166
13-06-1986,7.84375,7.84375,600000,8.03125,8.03125,3.0831804275512695
16-06-1986,7.9375,8.0,724000,8.0625,8.0625,3.0951757431030273
17-06-1986,7.859375,8.0625,438400,8.0625,7.96875,3.059185028076172
18-06-1986,7.828125,7.96875,331200,7.96875,7.921875,3.0411899089813232
19-06-1986,7.6875,7.921875,492000,7.9375,7.78125,2.987205743789673
20-06-1986,7.765625,7.78125,617600,7.875,7.84375,3.0111989974975586
23-06-1986,7.78125,7.875,881600,7.9375,7.90625,3.0351924896240234
24-06-1986,7.890625,7.9375,989600,8.109375,8.0625,3.0951757431030273
25-06-1986,8.078125,8.109375,1040000,8.171875,8.171875,3.137164831161499
26-06-1986,8.21875,8.34375,1207200,8.6875,8.6875,3.3351120948791504
27-06-1986,8.53125,8.65625,572000,8.65625,8.59375,3.299121141433716
30-06-1986,8.5,8.5625,396000,8.640625,8.515625,3.269129753112793
01-07-1986,8.46875,8.5,1366400,8.546875,8.53125,3.2751269340515137
02-07-1986,8.4375,8.53125,1432800,8.53125,8.46875,3.251134157180786
03-07-1986,8.3125,8.484375,1009600,8.484375,8.421875,3.233138084411621
07-07-1986,8.15625,8.453125,603200,8.453125,8.15625,3.131166696548462
08-07-1986,7.765625,8.0,1141600,8.0,7.9375,3.0471882820129395
09-07-1986,7.828125,7.9375,952800,7.96875,7.921875,3.0411899089813232
10-07-1986,7.703125,7.921875,696000,7.921875,7.84375,3.0111989974975586
11-07-1986,7.78125,7.875,1339200,7.875,7.875,3.0231947898864746
14-07-1986,7.71875,7.84375,626400,7.84375,7.765625,2.9812045097351074
15-07-1986,7.5,7.71875,1178400,7.75,7.53125,2.8912317752838135
16-07-1986,7.515625,7.625,808800,7.671875,7.515625,2.8852322101593018
17-07-1986,7.5,7.5,1128000,7.671875,7.640625,2.933220148086548
18-07-1986,7.65625,7.75,808800,7.90625,7.78125,2.987205743789673
21-07-1986,7.65625,7.75,498400,7.75,7.71875,2.963209390640259
22-07-1986,7.6875,7.6875,740000,7.875,7.875,3.0231947898864746
23-07-1986,7.8125,7.859375,1444000,7.984375,7.96875,3.059185028076172
24-07-1986,7.9375,7.96875,552000,8.0625,8.0625,3.0951757431030273
25-07-1986,7.96875,8.078125,448000,8.09375,8.09375,3.1071722507476807
28-07-1986,7.8125,8.078125,580000,8.09375,7.8125,2.9992008209228516
29-07-1986,7.765625,7.828125,768800,7.828125,7.78125,2.987205743789673
30-07-1986,7.65625,7.78125,514400,7.796875,7.703125,2.9572136402130127
31-07-1986,7.65625,7.734375,704800,7.734375,7.703125,2.9572136402130127
01-08-1986,7.59375,7.6875,1102400,7.6875,7.59375,2.9152231216430664
04-08-1986,7.5,7.5625,620800,7.859375,7.859375,3.0171968936920166
05-08-1986,7.71875,7.71875,760800,7.875,7.71875,2.986006498336792
06-08-1986,7.53125,7.625,532800,7.640625,7.5625,2.92556095123291
07-08-1986,7.484375,7.59375,768800,7.625,7.5,2.901383399963379
08-08-1986,7.40625,7.546875,616800,7.546875,7.53125,2.9134721755981445
11-08-1986,7.53125,7.5625,1471200,7.859375,7.859375,3.0404067039489746
12-08-1986,7.78125,7.828125,952000,7.984375,7.921875,3.0645878314971924
13-08-1986,7.921875,7.921875,2211200,8.25,8.1875,3.167344331741333
14-08-1986,8.203125,8.234375,1181600,8.28125,8.234375,3.1854782104492188
15-08-1986,8.15625,8.3125,1148000,8.3125,8.265625,3.197566509246826
18-08-1986,8.125,8.25,1219200,8.25,8.21875,3.1794333457946777
19-08-1986,8.171875,8.1875,1656000,8.203125,8.171875,3.16129732131958
20-08-1986,8.1875,8.203125,1321600,8.359375,8.359375,3.2338345050811768
21-08-1986,8.34375,8.375,1935200,8.5,8.4375,3.264055013656616
22-08-1986,8.34375,8.46875,779200,8.46875,8.375,3.2398767471313477
25-08-1986,8.28125,8.34375,586400,8.359375,8.296875,3.209655523300171
26-08-1986,8.296875,8.296875,1156800,8.5,8.46875,3.2761433124542236
27-08-1986,8.4375,8.453125,981600,8.53125,8.53125,3.300323009490967
28-08-1986,8.5,8.53125,1001600,8.671875,8.640625,3.3426342010498047
29-08-1986,8.59375,8.59375,3828000,8.796875,8.71875,3.3728582859039307
02-09-1986,8.453125,8.71875,1000000,8.71875,8.46875,3.2761433124542236
03-09-1986,8.375,8.46875,1630400,8.625,8.625,3.3365912437438965
04-09-1986,8.640625,8.65625,2874400,9.0,8.890625,3.439347267150879
05-09-1986,8.625,8.875,1639200,8.921875,8.671875,3.3547255992889404
08-09-1986,8.515625,8.59375,1348000,8.78125,8.75,3.3849449157714844
09-09-1986,8.625,8.78125,1900800,8.859375,8.65625,3.3486807346343994
10-09-1986,8.5625,8.65625,1460000,8.8125,8.8125,3.409123420715332
11-09-1986,8.4375,8.8125,2055200,8.8125,8.46875,3.2761433124542236
12-09-1986,8.1875,8.484375,2328800,8.5,8.34375,3.2277886867523193
15-09-1986,8.390625,8.46875,1860800,8.484375,8.4375,3.264055013656616
16-09-1986,8.375,8.4375,1300800,8.484375,8.453125,3.2701001167297363
17-09-1986,8.34375,8.453125,1265600,8.484375,8.34375,3.2277886867523193
18-09-1986,8.3125,8.34375,861600,8.40625,8.359375,3.2338345050811768
19-09-1986,8.28125,8.359375,1069600,8.421875,8.421875,3.2580111026763916
22-09-1986,8.34375,8.390625,415200,8.4375,8.421875,3.2580111026763916
23-09-1986,8.421875,8.4375,1432800,8.546875,8.546875,3.306366443634033
24-09-1986,8.390625,8.5,820800,8.5625,8.5625,3.3124117851257324
25-09-1986,8.3125,8.5625,1181600,8.5625,8.375,3.2398767471313477
26-09-1986,8.25,8.34375,456000,8.359375,8.3125,3.215700149536133
29-09-1986,7.9375,8.28125,1515200,8.28125,8.0,3.0948092937469482
30-09-1986,7.96875,7.96875,930400,8.0625,8.015625,3.100853204727173
01-10-1986,8.015625,8.046875,1239200,8.1875,8.125,3.1431658267974854
02-10-1986,8.109375,8.171875,648800,8.203125,8.109375,3.137120008468628
03-10-1986,8.015625,8.078125,416000,8.1875,8.078125,3.1250321865081787
06-10-1986,8.03125,8.046875,403200,8.15625,8.0625,3.118987798690796
07-10-1986,8.046875,8.078125,541600,8.140625,8.078125,3.1250321865081787
08-10-1986,8.078125,8.109375,1105600,8.21875,8.1875,3.167344331741333
09-10-1986,8.21875,8.21875,1460800,8.28125,8.21875,3.1794333457946777
